Name,Demo Athlete
Date of Birth,1990-01-01
Recorded Date,2026-08-09 07:20:11 -0700
Classification,Sinus Rhythm
Symptoms,
Software Version,2.1
Device,"Watch7,2"
Sample Rate,510.844 hertz


Lead,Lead I
Unit,µV

0.000
0.738
1.476
2.214
2.952
3.690
4.427
5.165
5.903
6.640
7.378
8.115
8.852
9.589
10.326
11.063
11.799
12.535
13.272
14.007
14.743
15.478
16.213
16.948
17.683
18.417
19.151
19.885
20.618
21.351
22.084
22.816
23.548
24.279
25.010
25.741
26.471
27.201
27.930
28.659
29.387
30.115
30.842
31.569
32.295
33.021
33.746
34.471
35.195
35.918
36.641
37.363
38.085
38.806
39.526
40.246
40.965
41.683
42.400
43.117
43.833
44.549
45.263
45.977
46.690
47.403
48.114
48.825
49.535
50.244
50.952
51.660
52.366
53.072
53.776
54.480
55.183
55.885
56.586
57.286
57.985
58.683
59.381
60.077
60.772
61.466
62.159
62.851
63.542
64.232
64.921
65.609
66.295
66.981
67.665
68.349
69.031
69.712
70.392
71.070
71.748
72.424
73.099
73.773
74.445
75.116
75.786
76.455
77.123
77.789
78.454
79.117
79.779
80.440
81.100
81.758
82.415
83.070
83.724
84.377
85.028
85.677
86.326
86.973
87.618
88.262
88.904
89.545
90.185
90.823
91.459
92.094
92.727
93.359
93.989
94.618
95.245
95.870
96.494
97.116
97.736
98.355
98.973
99.588
100.202
100.814
101.425
102.034
102.641
103.246
103.850
104.452
105.052
105.650
106.247
106.842
107.435
108.026
108.615
109.203
109.788
110.372
110.954
111.535
112.113
112.689
113.264
113.836
114.407
114.976
115.543
116.108
116.670
117.231
117.790
118.348
118.903
119.456
120.007
120.556
121.103
121.648
122.191
122.731
123.270
123.807
124.342
124.874
125.405
125.933
126.459
126.983
127.505
128.025
128.543
129.058
129.572
130.083
130.592
131.099
131.603
132.105
132.606
133.104
133.599
134.093
134.584
135.073
135.559
136.044
136.526
137.006
137.483
137.958
138.431
138.902
139.370
139.836
140.299
140.760
141.219
141.676
142.130
142.581
143.031
143.477
143.922
144.364
144.803
145.240
145.675
146.107
146.537
146.965
147.389
-50.521
-53.988
-50.021
-37.173
-14.166
20.020
66.053
124.168
194.085
274.949
365.280
462.956
565.238
668.836
770.035
864.870
949.348
1019.700
1072.649
1105.646
1117.076
1106.386
1074.129
1021.921
952.308
868.571
774.476
674.016
571.158
469.616
372.680
283.089
202.964
133.786
76.410
31.116
-2.331
-24.600
-36.710
-39.938
-35.734
162.914
163.227
163.536
163.843
164.147
164.449
164.748
165.044
165.337
165.627
165.915
166.199
166.481
166.761
167.037
167.311
167.581
167.849
168.114
168.377
168.636
168.893
169.147
169.398
169.646
169.891
170.133
170.373
170.610
170.843
171.074
171.302
171.528
171.750
171.969
172.186
172.399
172.610
172.818
173.023
196.034
199.248
202.769
206.614
210.800
215.344
220.260
225.560
231.255
237.352
243.855
250.765
258.079
265.789
273.884
282.348
291.157
300.287
309.705
319.373
329.250
339.288
349.435
359.636
369.829
379.952
389.938
399.719
409.225
418.387
427.133
435.396
443.108
450.208
456.635
462.335
467.257
471.360
474.607
476.970
478.428
478.968
478.586
477.286
475.081
471.992
468.046
463.281
457.740
451.471
444.529
436.973
428.868
420.280
411.276
401.928
392.304
382.476
372.510
362.474
352.431
342.441
332.560
322.841
313.330
304.069
295.096
286.444
278.137
270.199
262.645
255.488
248.734
242.388
236.447
230.909
225.765
221.005
216.617
212.587
208.898
205.533
202.475
179.619
179.570
179.517
179.462
179.403
179.342
179.277
179.210
179.139
179.065
178.989
178.909
178.826
178.741
178.652
178.561
178.466
178.368
178.268
178.164
178.057
177.948
177.835
177.720
177.601
177.479
177.355
177.227
177.097
176.963
176.827
176.687
176.545
176.400
176.251
176.100
175.946
175.788
175.628
175.465
175.299
175.130
174.958
174.783
174.605
174.424
174.241
174.054
173.864
173.672
173.477
173.278
173.077
172.873
172.666
172.456
172.243
172.027
171.809
171.587
171.363
171.135
170.905
170.672
170.436
170.197
169.956
169.711
169.464
169.214
168.961
168.705
168.446
168.184
167.920
167.653
167.383
167.110
166.834
166.556
166.275
165.991
165.704
165.414
165.122
164.827
164.529
164.228
163.924
163.618
163.309
162.998
162.683
162.366
162.046
161.723
161.398
161.070
160.739
160.406
160.069
159.731
159.389
159.045
158.698
158.348
157.996
157.641
157.284
156.923
156.561
156.195
155.827
155.456
155.083
154.707
154.329
153.947
153.564
153.177
152.789
152.397
152.003
151.607
151.207
150.806
150.402
149.995
149.586
149.174
148.760
148.343
147.924
147.502
147.078
146.651
146.222
145.790
145.356
144.920
144.481
144.040
143.596
143.150
142.701
142.250
141.797
141.341
140.883
140.422
139.959
139.494
139.026
138.557
138.084
137.610
137.133
136.654
136.172
135.688
135.202
134.714
134.224
133.731
133.236
132.738
132.239
131.737
131.233
130.727
130.218
129.708
129.195
128.680
128.163
127.644
127.122
126.599
126.073
125.545
125.015
124.483
123.949
123.413
122.875
122.335
121.792
121.248
120.701
120.153
119.602
119.050
118.495
117.939
117.380
116.820
116.257
115.693
115.127
114.559
113.988
113.416
112.842
112.266
111.689
111.109
110.527
109.944
109.359
108.772
108.183
107.592
106.999
106.405
105.809
105.211
104.611
104.010
103.407
102.802
102.195
101.587
100.977
100.365
99.752
99.136
98.520
97.901
97.281
96.659
96.036
95.411
94.785
94.156
93.527
92.895
92.262
91.628
90.992
90.354
89.715
89.075
88.433
87.789
87.144
86.498
85.850
85.201
84.550
83.898
83.244
82.589
81.933
81.275
80.616
79.955
79.293
78.630
77.966
77.300
76.633
75.964
75.295
74.624
73.952
73.278
72.603
71.928
71.250
70.572
69.893
69.212
68.530
67.847
67.163
66.478
65.792
65.104
64.415
63.726
63.035
62.343
61.651
60.957
60.262
59.566
58.869
58.171
57.472
56.772
56.072
55.370
54.667
53.964
53.259
52.554
51.848
51.140
50.432
49.724
49.014
48.303
47.592
46.880
46.167
45.453
-153.594
-158.196
-155.363
-143.646
-121.768
-88.710
-43.803
13.187
81.982
161.725
250.937
347.497
448.663
551.149
651.237
744.964
828.334
897.582
949.428
981.324
991.656
979.869
946.518
893.218
822.515
737.690
642.509
540.966
437.026
334.406
236.393
145.727
64.530
-5.718
-64.161
-110.520
-145.030
-168.359
-181.527
-185.810
-182.659
14.939
14.203
13.467
12.731
11.995
11.259
10.522
9.785
9.048
8.311
7.574
6.836
6.099
5.361
4.624
3.886
3.148
2.410
1.672
0.934
0.196
-0.542
-1.280
-2.018
-2.755
-3.493
-4.231
-4.969
-5.707
-6.444
-7.182
-7.919
-8.656
-9.393
-10.130
-10.867
-11.603
-12.340
-13.076
-13.812
8.262
10.541
13.131
16.047
19.308
22.931
26.928
31.313
36.096
41.284
46.881
52.889
59.304
66.119
73.323
80.897
88.822
97.069
105.609
114.402
123.407
132.577
141.859
151.199
160.535
169.803
178.939
187.873
196.535
204.856
212.766
220.196
227.080
233.354
238.959
243.840
247.948
251.240
253.680
255.240
255.898
255.641
254.467
252.379
249.389
245.519
240.796
235.258
228.947
221.912
214.209
205.896
197.036
187.698
177.948
167.857
157.496
146.933
136.237
125.474
114.709
104.000
93.405
82.975
72.757
62.794
53.123
43.776
34.780
26.155
17.919
10.084
2.657
-4.359
-10.965
-17.165
-22.966
-28.378
-33.415
-38.090
-42.419
-46.420
-50.110
-73.593
-74.266
-74.938
-75.608
-76.277
-76.945
-77.612
-78.277
-78.941
-79.603
-80.264
-80.924
-81.583
-82.240
-82.896
-83.550
-84.203
-84.855
-85.505
-86.153
-86.801
-87.446
-88.091
-88.734
-89.375
-90.015
-90.653
-91.290
-91.925
-92.559
-93.191
-93.822
-94.451
-95.078
-95.704
-96.328
-96.951
-97.572
-98.191
-98.809
-99.425
-100.039
-100.652
-101.263
-101.872
-102.479
-103.085
-103.689
-104.292
-104.892
-105.491
-106.088
-106.683
-107.277
-107.869
-108.459
-109.047
-109.633
-110.217
-110.800
-111.380
-111.959
-112.536
-113.111
-113.684
-114.255
-114.825
-115.392
-115.957
-116.521
-117.082
-117.642
-118.200
-118.755
-119.309
-119.860
-120.410
-120.957
-121.503
-122.046
-122.588
-123.127
-123.664
-124.200
-124.733
-125.264
-125.793
-126.319
-126.844
-127.367
-127.887
-128.405
-128.921
-129.435
-129.947
-130.457
-130.964
-131.469
-131.972
-132.473
-132.971
-133.468
-133.962
-134.453
-134.943
-135.430
-135.915
-136.398
-136.878
-137.356
-137.832
-138.306
-138.777
-139.246
-139.712
-140.176
-140.638
-141.097
-141.554
-142.009
-142.461
-142.911
-143.359
-143.804
-144.246
-144.687
-145.124
-145.560
-145.993
-146.423
-146.851
-147.277
-147.700
-148.120
-148.538
-148.954
-149.367
-149.778
-150.186
-150.591
-150.994
-151.395
-151.792
-152.188
-152.581
-152.971
-153.358
-153.744
-154.126
-154.506
-154.883
-155.258
-155.630
-156.000
-156.366
-156.731
-157.092
-157.451
-157.808
-158.161
-158.512
-158.861
-159.206
-159.549
-159.889
-160.227
-160.562
-160.894
-161.224
-161.551
-161.875
-162.196
-162.515
-162.831
-163.144
-163.454
-163.762
-164.067
-164.369
-164.668
-164.965
-165.259
-165.550
-165.838
-166.124
-166.407
-166.687
-166.964
-167.238
-167.510
-167.778
-168.044
-168.307
-168.567
-168.825
-169.079
-169.331
-169.580
-169.826
-170.069
-170.309
-170.547
-170.781
-171.013
-171.242
-171.468
-171.691
-171.911
-172.129
-172.343
-172.554
-172.763
-172.969
-173.172
-173.371
-173.568
-173.762
-173.954
-174.142
-174.327
-174.509
-174.689
-174.865
-175.039
-175.209
-175.377
-175.542
-175.704
-175.862
-176.018
-176.171
-176.321
-176.468
-176.612
-176.753
-176.891
-177.026
-177.158
-177.287
-177.413
-177.537
-177.657
-177.774
-177.888
-177.999
-178.108
-178.213
-178.315
-178.414
-178.511
-178.604
-178.694
-178.781
-178.866
-178.947
-179.025
-179.100
-179.172
-179.242
-179.308
-179.371
-179.431
-179.488
-179.542
-179.593
-179.641
-179.686
-179.728
-179.767
-179.803
-179.836
-179.866
-179.893
-179.917
-179.938
-179.956
-179.971
-179.983
-179.991
-179.997
-180.000
-179.999
-179.996
-179.990
-179.980
-179.968
-378.286
-382.153
-378.583
-366.125
-343.503
-309.696
-264.037
-206.291
-136.736
-56.229
33.750
131.080
233.021
336.285
437.155
531.666
615.826
685.866
738.508
771.204
782.338
771.358
738.817
686.330
616.444
532.439
438.083
337.367
234.258
132.472
35.296
-54.528
-134.881
-204.281
-261.873
-307.378
-341.030
-363.499
-375.802
-379.218
-375.196
-176.725
-176.583
-176.438
-176.291
-176.140
-175.987
-175.830
-175.671
-175.509
-175.343
-175.175
-175.004
-174.830
-174.653
-174.473
-174.290
-174.104
-173.915
-173.723
-173.529
-173.331
-173.131
-172.927
-172.721
-172.512
-172.300
-172.085
-171.867
-171.646
-171.423
-171.196
-170.967
-170.734
-170.499
-170.261
-170.020
-169.777
-169.530
-169.280
-169.028
-145.964
-142.691
-139.106
-135.191
-130.928
-126.302
-121.299
-115.905
-110.112
-103.910
-97.296
-90.270
-82.834
-74.996
-66.767
-58.165
-49.210
-39.930
-30.356
-20.525
-10.481
-0.269
10.058
20.443
30.827
41.146
51.335
61.323
71.043
80.423
89.394
97.887
105.836
113.177
119.852
125.804
130.986
135.353
138.870
141.509
143.248
144.075
143.985
142.984
141.083
138.303
134.673
130.228
125.013
119.076
112.471
105.259
97.502
89.268
80.624
71.641
62.389
52.936
43.353
33.704
24.054
14.462
4.986
-4.324
-13.420
-22.260
-30.807
-39.029
-46.898
-54.394
-61.500
-68.204
-74.498
-80.381
-85.852
-90.915
-95.579
-99.852
-103.749
-107.283
-110.470
-113.327
-115.873
-138.210
-137.736
-137.260
-136.781
-136.301
-135.817
-135.332
-134.844
-134.354
-133.862
-133.368
-132.871
-132.372
-131.871
-131.367
-130.862
-130.354
-129.844
-129.332
-128.817
-128.301
-127.782
-127.261
-126.738
-126.213
-125.686
-125.157
-124.625
-124.092
-123.556
-123.018
-122.479
-121.937
-121.393
-120.847
-120.299
-119.749
-119.197
-118.643
-118.087
-117.529
-116.969
-116.407
-115.843
-115.278
-114.710
-114.140
-113.569
-112.995
-112.420
-111.842
-111.263
-110.682
-110.099
-109.515
-108.928
-108.340
-107.749
-107.157
-106.563
-105.968
-105.370
-104.771
-104.170
-103.567
-102.963
-102.357
-101.749
-101.139
-100.528
-99.915
-99.300
-98.684
-98.066
-97.446
-96.825
-96.202
-95.577
-94.951
-94.324
-93.694
-93.063
-92.431
-91.797
-91.161
-90.524
-89.886
-89.245
-88.604
-87.961
-87.316
-86.670
-86.023
-85.374
-84.723
-84.071
-83.418
-82.763
-82.107
-81.450
-80.791
-80.131
-79.470
-78.807
-78.143
-77.477
-76.810
-76.142
-75.473
-74.802
-74.130
-73.457
-72.783
-72.107
-71.431
-70.753
-70.074
-69.393
-68.712
-68.029
-67.345
-66.660
-65.974
-65.287
-64.599
-63.909
-63.219
-62.527
-61.835
-61.141
-60.447
-59.751
-59.054
-58.357
-57.658
-56.959
-56.258
-55.557
-54.854
-54.151
-53.447
-52.742
-52.036
-51.329
-50.621
-49.912
-49.203
-48.492
-47.781
-47.069
-46.357
-45.643
-44.929
-44.214
-43.498
-42.782
-42.065
-41.347
-40.628
-39.909
-39.189
-38.468
-37.747
-37.025
-36.303
-35.580
-34.856
-34.132
-33.407
-32.681
-31.955
-31.229
-30.502
-29.774
-29.046
-28.318
-27.589
-26.859
-26.129
-25.399
-24.668
-23.937
-23.205
-22.473
-21.741
-21.008
-20.275
-19.541
-18.808
-18.074
-17.339
-16.604
-15.869
-15.134
-14.399
-13.663
-12.927
-12.191
-11.455
-10.718
-9.981
-9.244
-8.507
-7.770
-7.033
-6.295
-5.558
-4.820
-4.082
-3.344
-2.606
-1.869
-1.131
-0.393
0.345
1.083
1.821
2.559
3.297
4.035
4.773
5.510
6.248
6.985
7.723
8.460
9.197
9.934
10.671
11.407
12.144
12.880
13.616
14.352
15.087
15.822
16.557
17.292
18.027
18.761
19.494
20.228
20.961
21.694
22.426
23.158
23.890
24.621
25.352
26.082
26.812
27.542
28.271
29.000
29.728
30.455
31.182
31.909
32.635
33.360
34.085
34.810
35.533
36.256
36.979
37.701
38.422
39.143
39.863
40.582
41.301
42.019
42.736
43.453
44.168
44.883
45.598
46.311
47.024
47.736
48.447
49.157
49.867
50.576
51.283
51.990
52.696
53.402
54.106
54.809
55.512
56.213
56.914
57.613
58.312
59.010
59.707
60.402
61.097
61.791
62.483
63.175
63.865
64.555
65.243
65.930
-131.717
-134.918
-130.685
-117.569
-94.292
-59.836
-13.531
44.857
115.049
196.189
286.796
384.751
487.312
591.192
692.674
787.792
872.555
943.194
996.430
1029.716
1041.436
1031.038
999.074
947.159
877.842
794.401
700.604
600.443
497.885
396.644
300.011
210.724
130.904
62.032
4.964
-40.021
-73.159
-95.117
-106.914
-109.829
-105.310
93.654
94.283
94.911
95.537
96.162
96.785
97.407
98.026
98.644
99.261
99.876
100.489
101.100
101.710
102.318
102.924
103.529
104.132
104.733
105.332
105.930
106.525
107.119
107.711
108.302
108.890
109.477
110.062
110.645
111.226
111.805
112.383
112.958
113.532
114.104
114.673
115.241
115.807
116.371
116.933
140.302
143.876
147.756
151.962
156.510
161.416
166.696
172.360
178.421
184.884
191.754
199.032
206.715
214.795
223.261
232.096
241.278
250.781
260.572
270.615
280.868
291.282
301.807
312.385
322.958
333.460
343.827
353.989
363.877
373.421
382.550
391.197
399.295
406.781
413.594
419.681
424.991
429.483
433.119
435.872
437.720
438.652
438.662
437.755
435.943
433.247
429.697
425.327
420.182
414.309
407.764
400.607
392.900
384.711
376.107
367.159
357.936
348.509
338.945
329.312
319.672
310.085
300.609
291.294
282.188
273.333
264.767
256.521
248.622
241.091
233.946
227.197
220.853
214.916
209.386
204.258
199.525
195.177
191.201
187.583
184.307
181.356
178.711
156.269
156.634
156.996
157.356
157.713
158.067
158.419
158.768
159.114
159.458
159.799
160.138
160.473
160.806
161.136
161.464
161.789
162.111
162.430
162.747
163.061
163.372
163.680
163.986
164.289
164.589
164.886
165.181
165.473
165.762
166.048
166.332
166.612
166.890
167.165
167.438
167.707
167.974
168.237
168.498
168.757
169.012
169.264
169.514
169.761
170.005
170.246
170.484
170.719
170.952
171.181
171.408
171.632
171.853
172.071
172.286
172.498
172.708
172.914
173.118
173.319
173.516
173.711
173.903
174.092
174.278
174.461
174.641
174.819
174.993
175.164
175.333
175.498
175.661
175.820
175.977
176.131
176.281
176.429
176.574
176.716
176.855
176.990
177.123
177.253
177.380
177.504
177.625
177.743
177.858
177.970
178.079
178.185
178.288
178.388
178.485
178.579
178.670
178.758
178.843
178.925
179.004
179.080
179.153
179.223
179.290
179.354
179.415
179.473
179.528
179.580
179.629
179.675
179.718
179.757
179.794
179.828
179.859
179.886
179.911
179.933
179.951
179.967
179.980
179.989
179.996
179.999
180.000
179.997
179.992
179.983
179.972
179.957
179.939
179.919
179.895
179.868
179.838
179.806
179.770
179.731
179.689
179.644
179.596
179.546
179.492
179.435
179.375
179.312
179.246
179.177
179.105
179.030
178.952
178.871
178.787
178.700
178.610
178.517
178.421
178.322
178.220
178.114
178.006
177.895
177.781
177.664
177.544
177.421
177.295
177.167
177.035
176.900
176.762
176.621
176.477
176.330
176.181
176.028
175.872
175.714
175.552
175.388
175.220
175.050
174.876
174.700
174.521
174.339
174.154
173.966
173.775
173.581
173.384
173.184
172.982
172.776
172.568
172.357
172.142
171.925
171.705
171.482
171.257
171.028
170.796
170.562
170.325
170.085
169.842
169.596
169.347
169.096
168.841
168.584
168.324
168.061
167.795
167.527
167.255
166.981
166.704
166.425
166.142
165.857
165.569
165.278
164.984
164.687
164.388
164.086
163.781
163.474
163.164
162.851
162.535
162.217
161.895
161.571
161.245
160.915
160.583
160.249
159.911
159.571
159.228
158.883
158.535
158.184
157.830
157.474
157.115
156.754
156.390
156.023
155.654
155.282
154.907
154.530
154.150
153.768
153.383
152.996
152.606
152.213
151.818
151.420
151.020
150.617
150.212
149.804
149.393
148.980
148.565
148.147
147.727
147.304
146.878
146.451
146.020
145.588
145.152
144.715
144.275
143.832
-54.946
-59.279
-56.180
-44.199
-22.058
11.261
56.427
113.675
182.726
262.724
352.189
448.999
550.415
653.148
753.483
847.453
931.067
1000.555
1052.640
1084.774
1095.341
1083.788
1050.669
997.599
927.125
842.526
747.570
646.251
542.533
440.131
342.336
251.887
170.905
100.869
42.637
-3.513
-37.816
-60.940
-73.904
-77.986
-74.634
123.162
122.622
122.081
121.538
120.992
120.445
119.896
119.344
118.791
118.235
117.678
117.118
116.557
115.994
115.428
114.861
114.292
113.721
113.148
112.573
111.996
111.417
110.837
110.255
109.670
109.084
108.496
107.906
107.315
106.722
106.126
105.529
104.931
104.330
103.728
103.124
102.518
101.911
101.302
100.691
122.887
125.288
127.997
131.031
134.407
138.143
142.252
146.746
151.637
156.931
162.632
168.742
175.257
182.170
189.469
197.137
205.154
213.492
222.119
230.998
240.088
249.340
258.703
268.121
277.533
286.876
296.084
305.088
313.819
322.207
330.181
337.674
344.618
350.951
356.613
361.549
365.709
369.052
371.541
373.147
373.850
373.637
372.503
370.454
367.501
363.665
358.976
353.469
347.186
340.179
332.500
324.210
315.371
306.052
296.319
286.243
275.895
265.343
254.656
243.900
233.140
222.434
211.840
201.409
191.189
181.221
171.543
162.187
153.179
144.542
136.291
128.439
120.993
113.957
107.328
101.103
95.275
89.834
84.767
80.059
75.695
71.657
67.928
44.404
43.689
42.973
42.256
41.538
40.819
40.100
39.381
38.660
37.939
37.217
36.495
35.772
35.048
34.324
33.600
32.874
32.148
31.422
30.695
29.968
29.240
28.511
27.783
27.053
26.323
25.593
24.862
24.131
23.400
22.668
21.936
21.203
20.470
19.737
19.003
18.269
17.535
16.800
16.065
15.330
14.594
13.859
13.123
12.387
11.650
10.914
10.177
9.440
8.703
7.966
7.229
6.491
5.754
5.016
4.278
3.541
2.803
2.065
1.327
0.589
-0.149
-0.887
-1.625
-2.363
-3.101
-3.839
-4.576
-5.314
-6.052
-6.789
-7.527
-8.264
-9.001
-9.738
-10.475
-11.211
-11.948
-12.684
-13.420
-14.156
-14.892
-15.627
-16.362
-17.097
-17.831
-18.565
-19.299
-20.033
-20.766
-21.499
-22.231
-22.964
-23.695
-24.427
-25.158
-25.888
-26.618
-27.348
-28.077
-28.806
-29.534
-30.262
-30.989
-31.716
-32.442
-33.167
-33.892
-34.617
-35.341
-36.064
-36.787
-37.509
-38.230
-38.951
-39.671
-40.391
-41.110
-41.828
-42.545
-43.262
-43.978
-44.693
-45.408
-46.121
-46.834
-47.547
-48.258
-48.968
-49.678
-50.387
-51.095
-51.802
-52.509
-53.214
-53.919
-54.622
-55.325
-56.027
-56.728
-57.427
-58.126
-58.824
-59.521
-60.217
-60.912
-61.606
-62.299
-62.991
-63.682
-64.371
-65.060
-65.748
-66.434
-67.119
-67.803
-68.487
-69.168
-69.849
-70.529
-71.207
-71.884
-72.560
-73.235
-73.908
-74.581
-75.252
-75.922
-76.590
-77.257
-77.923
-78.588
-79.251
-79.913
-80.573
-81.233
-81.891
-82.547
-83.202
-83.856
-84.508
-85.159
-85.809
-86.457
-87.103
-87.748
-88.392
-89.034
-89.674
-90.314
-90.951
-91.587
-92.222
-92.855
-93.486
-94.116
-94.744
-95.371
-95.996
-96.620
-97.241
-97.862
-98.480
-99.097
-99.712
-100.326
-100.938
-101.548
-102.156
-102.763
-103.368
-103.971
-104.573
-105.173
-105.771
-106.367
-106.961
-107.554
-108.145
-108.734
-109.321
-109.907
-110.490
-111.072
-111.651
-112.229
-112.805
-113.380
-113.952
-114.522
-115.090
-115.657
-116.221
-116.784
-117.345
-117.903
-118.460
-119.014
-119.567
-120.118
-120.666
-121.213
-121.757
-122.300
-122.840
-123.379
-123.915
-124.449
-124.981
-125.511
-126.039
-126.565
-127.089
-127.610
-128.130
-128.647
-129.162
-129.675
-130.186
-130.694
-131.201
-131.705
-132.207
-132.706
-133.204
-133.699
-134.192
-134.683
-135.171
-135.657
-136.141
-136.623
-137.102
-137.579
-138.054
-138.526
-138.996
-139.464
-139.930
-140.393
-140.853
-141.312
-141.768
-142.221
-142.672
-143.121
-143.567
-144.011
-144.453
-144.892
-145.328
-145.763
-146.194
-146.624
-147.051
-147.475
-147.897
-148.316
-148.733
-149.148
-149.559
-149.969
-150.376
-150.780
-151.182
-151.581
-350.311
-354.591
-351.434
-339.390
-317.181
-283.789
-238.545
-181.214
-112.075
-31.984
57.579
154.492
256.016
358.861
459.313
553.406
637.147
706.768
758.990
791.266
801.981
790.580
757.618
704.710
634.403
549.976
455.197
354.059
250.528
148.318
50.719
-39.529
-120.305
-190.129
-248.145
-294.075
-328.151
-351.045
-363.773
-367.615
-364.018
-165.972
-166.257
-166.538
-166.817
-167.092
-167.365
-167.636
-167.903
-168.168
-168.429
-168.688
-168.944
-169.198
-169.448
-169.695
-169.940
-170.182
-170.421
-170.657
-170.890
-171.121
-171.348
-171.573
-171.794
-172.013
-172.229
-172.442
-172.652
-172.860
-173.064
-173.265
-173.464
-173.660
-173.852
-174.042
-174.229
-174.413
-174.594
-174.772
-174.947
-152.310
-149.464
-146.306
-142.818
-138.982
-134.783
-130.206
-125.239
-119.871
-114.096
-107.908
-101.308
-94.297
-86.884
-79.081
-70.903
-62.373
-53.517
-44.368
-34.961
-25.341
-15.552
-5.649
4.313
14.275
24.171
33.937
43.504
52.802
61.761
70.311
78.383
85.912
92.833
99.088
104.621
109.384
113.333
116.432
118.652
119.974
120.384
119.878
118.460
116.143
112.947
108.902
104.043
98.414
92.063
85.045
77.420
69.251
60.605
51.550
42.156
32.493
22.631
12.638
2.581
-7.478
-17.477
-27.361
-37.078
-46.580
-55.826
-64.777
-73.403
-81.676
-89.576
-97.084
-104.190
-110.887
-117.170
-123.041
-128.504
-133.566
-138.239
-142.533
-146.464
-150.047
-153.300
-156.241
-178.973
-178.893
-178.809
-178.723
-178.634
-178.542
-178.446
-178.348
-178.247
-178.143
-178.035
-177.925
-177.812
-177.696
-177.577
-177.454
-177.329
-177.201
-177.070
-176.936
-176.799
-176.659
-176.516
-176.370
-176.221
-176.069
-175.914
-175.756
-175.595
-175.432
-175.265
-175.095
-174.923
-174.747
-174.569
-174.388
-174.203
-174.016
-173.826
-173.633
-173.437
-173.238
-173.036
-172.831
-172.624
-172.413
-172.200
-171.983
-171.764
-171.542
-171.317
-171.089
-170.858
-170.625
-170.388
-170.149
-169.907
-169.661
-169.414
-169.163
-168.909
-168.653
-168.393
-168.131
-167.866
-167.599
-167.328
-167.055
-166.778
-166.499
-166.218
-165.933
-165.646
-165.355
-165.062
-164.767
-164.468
-164.167
-163.863
-163.556
-163.247
-162.934
-162.619
-162.301
-161.981
-161.658
-161.332
-161.003
-160.672
-160.338
-160.001
-159.662
-159.320
-158.975
-158.627
-158.277
-157.925
-157.569
-157.211
-156.850
-156.487
-156.121
-155.752
-155.381
-155.007
-154.631
-154.252
-153.870
-153.486
-153.099
-152.710
-152.318
-151.923
-151.526
-151.127
-150.724
-150.320
-149.912
-149.503
-149.091
-148.676
-148.259
-147.839
-147.417
-146.992
-146.565
-146.135
-145.703
-145.268
-144.831
-144.392
-143.950
-143.506
-143.059
-142.610
-142.159
-141.705
-141.248
-140.790
-140.329
-139.866
-139.400
-138.932
-138.461
-137.989
-137.514
-137.036
-136.557
-136.075
-135.590
-135.104
-134.615
-134.124
-133.631
-133.135
-132.638
-132.138
-131.635
-131.131
-130.624
-130.115
-129.604
-129.091
-128.576
-128.058
-127.539
-127.017
-126.493
-125.967
-125.438
-124.908
-124.376
-123.841
-123.305
-122.766
-122.225
-121.682
-121.138
-120.591
-120.042
-119.491
-118.938
-118.383
-117.826
-117.267
-116.706
-116.144
-115.579
-115.012
-114.443
-113.873
-113.300
-112.726
-112.150
-111.572
-110.992
-110.410
-109.826
-109.240
-108.653
-108.064
-107.472
-106.880
-106.285
-105.688
-105.090
-104.490
-103.888
-103.285
-102.679
-102.073
-101.464
-100.853
-100.241
-99.627
-99.012
-98.395
-97.776
-97.156
-96.534
-95.910
-95.285
-94.658
-94.029
-93.399
-92.768
-92.134
-91.500
-90.863
-90.226
-89.586
-88.945
-88.303
-87.659
-87.014
-86.367
-85.719
-85.069
-84.418
-83.766
-83.112
-82.457
-81.800
-81.142
-80.482
-79.822
-79.160
-78.496
-77.831
-77.165
-76.498
-75.829
-75.159
-74.488
-73.816
-73.142
-72.467
-71.791
-71.114
-70.435
-69.755
-69.074
-68.392
-67.709
-67.025
-66.339
-65.653
-64.965
-64.276
-63.586
-62.895
-62.203
-61.510
-60.816
-60.121
-59.425
-58.728
-58.030
-57.331
-56.631
-55.930
-55.228
-54.525
-53.821
-53.117
-52.411
-250.038
-253.217
-248.960
-235.818
-212.512
-178.026
-131.689
-73.267
-3.039
78.140
168.788
266.784
369.390
473.315
574.845
670.014
754.829
825.522
878.814
912.158
923.938
913.602
881.701
829.853
760.603
677.232
583.507
483.420
380.938
279.775
183.221
94.015
14.279
-54.507
-111.488
-156.383
-189.429
-211.294
-222.996
-225.814
-221.196
-22.130
-21.398
-20.665
-19.932
-19.198
-18.464
-17.730
-16.995
-16.261
-15.525
-14.790
-14.054
-13.319
-12.583
-11.846
-11.110
-10.373
-9.636
-8.899
-8.162
-7.425
-6.687
-5.950
-5.212
-4.475
-3.737
-2.999
-2.261
-1.523
-0.785
-0.047
0.691
1.429
2.167
2.905
3.642
4.380
5.118
5.856
6.593
30.140
33.892
37.954
42.342
47.075
52.168
57.636
63.491
69.743
76.400
83.466
90.942
98.824
107.105
115.774
124.814
134.202
143.914
153.915
164.171
174.637
185.267
196.009
206.807
217.600
228.325
238.916
249.304
259.420
269.194
278.555
287.435
295.768
303.490
310.542
316.869
322.421
327.156
331.038
334.038
336.135
337.317
337.579
336.926
335.370
332.932
329.640
325.531
320.648
315.039
308.760
301.870
294.432
286.513
278.182
269.508
260.561
251.411
242.126
232.773
223.415
214.112
204.921
195.893
187.076
178.511
170.236
162.284
154.679
147.445
140.598
134.149
128.106
122.472
117.246
112.424
107.999
103.959
100.294
96.988
94.025
91.389
89.061
66.937
67.622
68.305
68.987
69.668
70.348
71.027
71.704
72.381
73.056
73.729
74.402
75.073
75.744
76.412
77.080
77.746
78.411
79.075
79.737
80.398
81.057
81.716
82.373
83.028
83.682
84.335
84.986
85.636
86.284
86.931
87.577
88.221
88.863
89.504
90.144
90.782
91.418
92.053
92.687
93.318
93.949
94.577
95.204
95.830
96.454
97.076
97.697
98.316
98.933
99.549
100.163
100.775
101.386
101.995
102.602
103.207
103.811
104.413
105.013
105.612
106.209
106.804
107.397
107.988
108.577
109.165
109.751
110.335
110.917
111.497
112.076
112.652
113.227
113.800
114.371
114.939
115.506
116.071
116.635
117.196
117.755
118.312
118.867
119.420
119.971
120.521
121.068
121.613
122.156
122.697
123.236
123.773
124.307
124.840
125.371
125.899
126.426
126.950
127.472
127.992
128.510
129.025
129.539
130.050
130.559
131.066
131.571
132.073
132.574
133.072
133.568
134.061
134.552
135.042
135.528
136.013
136.495
136.975
137.453
137.928
138.401
138.872
139.340
139.806
140.270
140.731
141.190
141.646
142.101
142.552
143.002
143.449
143.893
144.336
144.775
145.213
145.647
146.080
146.510
146.937
147.362
147.785
148.205
148.622
149.038
149.450
149.860
150.268
150.673
151.075
151.475
151.873
152.267
152.660
153.049
153.436
153.821
154.203
154.582
154.959
155.333
155.705
156.074
156.440
156.804
157.165
157.523
157.879
158.232
158.583
158.931
159.276
159.618
159.958
160.295
160.629
160.961
161.290
161.616
161.940
162.261
162.579
162.894
163.207
163.517
163.824
164.128
164.430
164.729
165.025
165.318
165.609
165.896
166.181
166.463
166.743
167.019
167.293
167.564
167.832
168.097
168.360
168.620
168.876
169.130
169.382
169.630
169.875
170.118
170.358
170.595
170.829
171.060
171.288
171.513
171.736
171.955
172.172
172.386
172.597
172.805
173.010
173.212
173.411
173.608
173.801
173.992
174.179
174.364
174.546
174.725
174.901
175.073
175.244
175.411
175.575
175.736
175.894
176.049
176.202
176.351
176.497
176.641
176.781
176.919
177.053
177.185
177.313
177.439
177.561
177.681
177.797
177.911
178.022
178.129
178.234
178.335
178.434
178.530
178.622
178.712
178.799
178.882
178.963
179.040
179.115
179.187
179.255
179.321
179.383
179.443
179.499
179.553
179.603
179.651
179.695
179.737
179.775
179.810
179.843
179.872
179.898
179.922
179.942
179.959
179.973
179.985
179.993
179.998
180.000
179.999
179.995
179.988
179.978
179.965
179.949
179.930
179.908
179.883
179.855
179.823
179.789
179.752
179.712
179.669
-18.711
-22.646
-19.150
-6.772
15.765
49.480
95.041
152.683
222.128
302.519
392.376
489.578
591.385
694.508
795.232
889.591
973.593
1043.469
1095.940
1128.459
1139.412
1128.244
1095.508
1042.821
972.729
888.512
793.937
692.997
589.658
487.635
390.218
300.145
219.539
149.878
92.020
46.244
12.314
-10.439
-23.032
-26.744
-23.023
175.141
174.969
174.794
174.617
174.436
174.253
174.066
173.877
173.684
173.489
173.291
173.090
172.886
172.679
172.469
172.257
172.041
171.823
171.601
171.377
171.150
170.920
170.687
170.451
170.213
169.971
169.727
169.480
169.230
168.977
168.721
168.463
168.201
167.937
167.670
167.400
167.128
166.852
166.574
166.293
188.818
191.546
194.581
197.941
201.642
205.700
210.131
214.946
220.157
225.769
231.788
238.214
245.044
252.270
259.882
267.862
276.189
284.836
293.771
302.958
312.352
321.909
331.575
341.294
351.007
360.650
370.156
379.457
388.484
397.166
405.433
413.218
420.453
427.075
433.024
438.247
442.693
446.320
449.092
450.980
451.963
452.028
451.173
449.399
446.721
443.160
438.743
433.506
427.494
420.754
413.342
405.318
396.744
387.687
378.216
368.400
358.310
348.015
337.584
327.083
316.576
306.122
295.778
285.596
275.623
265.902
256.468
247.356
238.590
230.193
222.181
214.567
207.357
200.554
194.159
188.166
182.568
177.356
172.516
168.034
163.894
160.079
156.571
133.267
132.770
132.271
131.769
131.265
130.759
130.251
129.741
129.228
128.713
128.196
127.677
127.156
126.632
126.107
125.579
125.049
124.518
123.984
123.448
122.909
122.369
121.827
121.283
120.736
120.188
119.638
119.085
118.531
117.975
117.416
116.856
116.294
115.729
115.163
114.595
114.025
113.453
112.879
112.303
111.726
111.146
110.565
109.981
109.396
108.809
108.220
107.630
107.037
106.443
105.847
105.249
104.650
104.049
103.445
102.841
102.234
101.626
101.016
100.404
99.791
99.176
98.559
97.941
97.321
96.699
96.076
95.451
94.825
94.197
93.567
92.936
92.303
91.669
91.033
90.395
89.756
89.116
88.474
87.831
87.186
86.539
85.892
85.242
84.592
83.939
83.286
82.631
81.975
81.317
80.658
79.998
79.336
78.673
78.008
77.343
76.676
76.007
75.338
74.667
73.995
73.321
72.647
71.971
71.294
70.616
69.936
69.256
68.574
67.891
67.207
66.522
65.835
65.148
64.460
63.770
63.079
62.388
61.695
61.001
60.306
59.610
58.914
58.216
57.517
56.817
56.117
55.415
54.712
54.009
53.304
52.599
51.893
51.186
50.478
49.769
49.059
48.349
47.638
46.926
46.213
45.499
44.785
44.070
43.354
42.637
41.920
41.202
40.483
39.764
39.043
38.323
37.601
36.879
36.157
35.433
34.710
33.985
33.260
32.535
31.809
31.082
30.355
29.627
28.899
28.170
27.441
26.712
25.982
25.251
24.520
23.789
23.057
22.325
21.593
20.860
20.127
19.393
18.659
17.925
17.191
16.456
15.721
14.986
14.250
13.514
12.778
12.042
11.306
10.569
9.832
9.095
8.358
7.621
6.884
6.146
5.409
4.671
3.933
3.195
2.457
1.719
0.982
0.244
-0.494
-1.232
-1.970
-2.708
-3.446
-4.184
-4.922
-5.659
-6.397
-7.134
-7.872
-8.609
-9.346
-10.083
-10.820
-11.556
-12.293
-13.029
-13.765
-14.500
-15.236
-15.971
-16.706
-17.441
-18.175
-18.909
-19.643
-20.376
-21.109
-21.842
-22.574
-23.306
-24.038
-24.769
-25.500
-26.230
-26.960
-27.689
-28.418
-29.147
-29.875
-30.602
-31.329
-32.056
-32.781
-33.507
-34.232
-34.956
-35.679
-36.402
-37.125
-37.847
-38.568
-39.288
-40.008
-40.727
-41.446
-42.164
-42.881
-43.597
-44.313
-45.028
-45.742
-46.455
-47.168
-47.880
-48.591
-49.301
-50.010
-50.719
-51.426
-52.133
-52.839
-53.544
-54.248
-54.951
-55.654
-56.355
-57.055
-57.755
-58.453
-257.484
-262.066
-259.213
-247.475
-225.573
-192.489
-147.555
-90.535
-21.709
58.067
147.313
243.909
345.113
447.638
547.768
641.538
724.953
794.248
846.142
878.088
888.471
876.738
843.442
790.199
719.555
634.790
539.672
438.193
334.319
231.765
133.821
43.227
-37.898
-108.072
-166.438
-212.720
-247.150
-270.399
-283.483
-287.682
-284.445
-86.759
-87.405
-88.050
-88.692
-89.334
-89.974
-90.612
-91.249
-91.884
-92.518
-93.151
-93.781
-94.410
-95.038
-95.664
-96.288
-96.911
-97.532
-98.151
-98.769
-99.385
-100.000
-100.612
-101.224
-101.833
-102.441
-103.046
-103.651
-104.253
-104.854
-105.453
-106.050
-106.645
-107.239
-107.831
-108.421
-109.009
-109.595
-110.180
-110.762
-88.534
-86.098
-83.351
-80.274
-76.852
-73.066
-68.905
-64.353
-59.403
-54.045
-48.276
-42.096
-35.507
-28.516
-21.135
-13.381
-5.276
3.154
11.876
20.855
30.047
39.405
48.878
58.409
67.938
77.401
86.733
95.865
104.727
113.249
121.361
128.995
136.084
142.565
148.379
153.470
157.790
161.295
163.950
165.725
166.601
166.564
165.610
163.744
160.978
157.333
152.837
147.527
141.446
134.642
127.171
119.092
110.468
101.366
91.855
82.004
71.883
61.563
51.111
40.594
30.076
19.615
9.270
-0.909
-10.874
-20.583
-29.998
-39.088
-47.827
-56.192
-64.166
-71.739
-78.903
-85.654
-91.993
-97.925
-103.457
-108.599
-113.364
-117.765
-121.820
-125.545
-128.958
-152.163
-152.556
-152.946
-153.334
-153.719
-154.102
-154.482
-154.859
-155.234
-155.606
-155.976
-156.343
-156.707
-157.069
-157.428
-157.785
-158.139
-158.490
-158.838
-159.184
-159.527
-159.868
-160.206
-160.541
-160.873
-161.203
-161.530
-161.854
-162.176
-162.494
-162.810
-163.124
-163.434
-163.742
-164.047
-164.350
-164.649
-164.946
-165.240
-165.532
-165.820
-166.106
-166.389
-166.669
-166.946
-167.221
-167.492
-167.761
-168.027
-168.290
-168.551
-168.808
-169.063
-169.315
-169.564
-169.810
-170.054
-170.294
-170.532
-170.767
-170.998
-171.227
-171.454
-171.677
-171.897
-172.115
-172.329
-172.541
-172.750
-172.956
-173.159
-173.359
-173.556
-173.750
-173.941
-174.130
-174.315
-174.498
-174.677
-174.854
-175.028
-175.199
-175.366
-175.531
-175.693
-175.852
-176.008
-176.161
-176.311
-176.459
-176.603
-176.744
-176.882
-177.018
-177.150
-177.279
-177.405
-177.529
-177.649
-177.767
-177.881
-177.992
-178.101
-178.206
-178.309
-178.408
-178.505
-178.598
-178.688
-178.776
-178.860
-178.942
-179.020
-179.095
-179.168
-179.237
-179.304
-179.367
-179.427
-179.485
-179.539
-179.590
-179.638
-179.684
-179.726
-179.765
-179.801
-179.834
-179.865
-179.892
-179.916
-179.937
-179.955
-179.970
-179.982
-179.991
-179.997
-180.000
-180.000
-179.996
-179.990
-179.981
-179.969
-179.954
-179.935
-179.914
-179.890
-179.862
-179.832
-179.799
-179.762
-179.723
-179.680
-179.635
-179.586
-179.535
-179.480
-179.423
-179.362
-179.299
-179.232
-179.163
-179.090
-179.014
-178.936
-178.854
-178.769
-178.682
-178.591
-178.497
-178.401
-178.301
-178.199
-178.093
-177.984
-177.873
-177.758
-177.640
-177.520
-177.396
-177.270
-177.140
-177.008
-176.872
-176.734
-176.592
-176.448
-176.300
-176.150
-175.997
-175.841
-175.681
-175.519
-175.354
-175.186
-175.015
-174.841
-174.664
-174.484
-174.302
-174.116
-173.927
-173.736
-173.541
-173.344
-173.144
-172.941
-172.734
-172.525
-172.313
-172.099
-171.881
-171.660
-171.437
-171.211
-170.981
-170.749
-170.514
-170.276
-170.036
-169.792
-169.546
-169.297
-169.044
-168.789
-168.532
-168.271
-168.008
-167.741
-167.472
-167.200
-166.926
-166.648
-166.368
-166.085
-165.799
-165.510
-165.219
-164.924
-164.627
-164.327
-164.025
-163.720
-163.412
-163.101
-162.787
-162.471
-162.152
-161.830
-161.506
-161.178
-160.849
-160.516
-160.181
-159.843
-159.502
-159.159
-158.813
-158.464
-158.113
-157.759
-157.402
-157.043
-156.681
-156.316
-155.949
-155.579
-155.206
-154.831
-154.454
-154.073
-153.691
-153.305
-152.917
-152.527
-152.133
-151.738
-151.339
-150.939
-150.535
-150.129
-149.721
-149.310
-148.897
-148.481
-148.062
-147.641
-147.218
-146.792
-146.364
-145.933
-145.500
-145.064
-144.626
-144.185
-143.743
-143.297
-142.849
-142.399
-141.946
-141.492
-141.034
-140.574
-140.112
-139.648
-139.181
-337.045
-340.460
-336.437
-323.528
-300.454
-266.197
-220.089
-161.894
-91.891
-10.937
79.489
177.264
279.650
383.358
484.671
579.625
664.226
734.708
787.789
820.924
832.497
821.955
789.850
737.799
668.349
584.778
490.854
390.571
287.894
186.538
89.792
0.396
-79.529
-148.502
-205.668
-250.748
-283.976
-306.022
-317.903
-320.898
-316.456
-117.565
-117.005
-116.443
-115.880
-115.314
-114.746
-114.177
-113.605
-113.032
-112.457
-111.879
-111.300
-110.719
-110.137
-109.552
-108.966
-108.377
-107.787
-107.195
-106.601
-106.006
-105.409
-104.810
-104.209
-103.606
-103.002
-102.396
-101.788
-101.178
-100.567
-99.954
-99.340
-98.723
-98.106
-97.486
-96.865
-96.242
-95.618
-94.991
-94.364
-70.926
-67.280
-63.323
-59.037
-54.406
-49.413
-44.043
-38.284
-32.126
-25.562
-18.587
-11.201
-3.407
4.789
13.373
22.330
31.638
41.271
51.195
61.374
71.767
82.325
92.996
103.725
114.451
125.111
135.639
145.965
156.021
165.737
175.041
183.867
192.146
199.817
206.819
213.098
218.604
223.295
227.135
230.094
232.152
233.296
233.522
232.835
231.247
228.779
225.458
221.323
216.414
210.782
204.481
197.571
190.116
182.180
173.834
165.147
156.189
147.030
137.737
128.378
119.016
109.711
100.519
91.493
82.678
74.118
65.850
57.906
50.311
43.089
36.255
29.821
23.795
18.180
12.975
8.175
3.773
-0.240
-3.878
-7.155
-10.087
-12.690
-14.984
-37.071
-36.349
-35.626
-34.902
-34.178
-33.453
-32.728
-32.002
-31.275
-30.548
-29.821
-29.093
-28.364
-27.635
-26.906
-26.176
-25.446
-24.715
-23.984
-23.252
-22.520
-21.788
-21.055
-20.322
-19.588
-18.855
-18.121
-17.386
-16.651
-15.917
-15.181
-14.446
-13.710
-12.974
-12.238
-11.502
-10.765
-10.028
-9.291
-8.554
-7.817
-7.080
-6.342
-5.605
-4.867
-4.129
-3.392
-2.654
-1.916
-1.178
-0.440
0.298
1.036
1.774
2.512
3.250
3.988
4.725
5.463
6.201
6.938
7.676
8.413
9.150
9.887
10.624
11.360
12.097
12.833
13.569
14.305
15.040
15.775
16.510
17.245
17.980
18.714
19.448
20.181
20.914
21.647
22.379
23.111
23.843
24.574
25.305
26.036
26.766
27.495
28.224
28.953
29.681
30.409
31.136
31.862
32.588
33.314
34.039
34.763
35.487
36.210
36.933
37.655
38.376
39.097
39.817
40.536
41.255
41.973
42.690
43.407
44.123
44.838
45.552
46.266
46.978
47.690
48.402
49.112
49.821
50.530
51.238
51.945
52.651
53.356
54.061
54.764
55.467
56.168
56.869
57.569
58.267
58.965
59.662
60.358
61.052
61.746
62.439
63.131
63.821
64.511
65.199
65.886
66.573
67.258
67.942
68.624
69.306
69.987
70.666
71.344
72.021
72.697
73.371
74.044
74.716
75.387
76.057
76.725
77.392
78.057
78.722
79.385
80.046
80.707
81.366
82.023
82.680
83.334
83.988
84.640
85.290
85.940
86.587
87.233
87.878
88.522
89.163
89.804
90.443
91.080
91.716
92.350
92.982
93.614
94.243
94.871
95.497
96.122
96.745
97.367
97.987
98.605
99.221
99.836
100.450
101.061
101.671
102.279
102.885
103.490
104.093
104.694
105.294
105.891
106.487
107.081
107.674
108.264
108.853
109.440
110.025
110.608
111.189
111.768
112.346
112.922
113.495
114.067
114.637
115.205
115.771
116.335
116.897
117.458
118.016
118.572
119.126
119.678
120.229
120.777
121.323
121.867
122.409
122.949
123.487
124.023
124.557
125.089
125.618
126.146
126.671
127.194
127.716
128.234
128.751
129.266
129.778
130.289
130.797
131.303
131.806
132.308
132.807
133.304
133.799
134.291
134.782
135.270
135.755
136.239
136.720
137.199
137.675
138.150
138.622
139.091
139.558
140.023
140.486
140.946
141.404
141.859
142.312
142.763
143.211
143.657
144.101
144.542
144.980
145.416
145.850
146.281
146.710
147.137
147.560
-50.351
-53.819
-49.853
-37.006
-14.000
20.185
66.217
124.331
194.247
275.110
365.440
463.115
565.395
668.992
770.191
865.025
949.501
1019.853
1072.800
1105.796
1117.226
1106.534
1074.276
1022.067
952.453
868.715
774.619
674.158
571.299
469.756
372.818
283.226
203.100
133.921
76.545
31.249
-2.199
-24.469
-36.580
-39.809
-35.606
163.041
163.352
163.661
163.967
164.270
164.570
164.867
165.162
165.454
165.744
166.030
166.314
166.594
166.873
167.148
167.420
167.690
167.957
168.221
168.482
168.740
168.996
169.248
169.498
169.745
169.989
170.230
170.469
170.704
170.937
171.167
171.394
171.618
171.839
172.057
172.272
172.485
172.694
172.901
173.105
196.115
199.328
202.847
206.691
210.876
215.419
220.333
225.632
231.326
237.422
243.924
250.832
258.145
265.854
273.948
282.411
291.219
300.348
309.764
319.431
329.307
339.344
349.490
359.689
369.882
380.003
389.988
399.768
409.273
418.433
427.178
435.439
443.151
450.250
456.675
462.373
467.295
471.397
474.643
477.004
478.461
478.999
478.616
477.315
475.109
472.018
468.072
463.306
457.763
451.493
444.549
436.993
428.887
420.297
411.292
401.942
392.318
382.488
372.521
362.484
352.440
342.448
332.566
322.845
313.333
304.071
295.098
286.443
278.136
270.196
262.641
255.483
248.728
242.380
236.439
230.899
225.754
220.993
216.604
212.572
208.882
205.516
202.456
179.600
179.549
179.495
179.438
179.379
179.316
179.250
179.181
179.110
179.035
178.957
178.876
178.792
178.705
178.616
178.523
178.427
178.328
178.226
178.121
178.013
177.903
177.789
177.672
177.552
177.429
177.304
177.175
177.043
176.908
176.771
176.630
176.487
176.340
176.190
176.038
175.882
175.724
175.563
175.398
175.231
175.061
174.888
174.712
174.532
174.351
174.166
173.978
173.787
173.593
173.397
173.197
172.995
172.790
172.581
172.370
172.156
171.939
171.719
171.497
171.271
171.043
170.811
170.577
170.340
170.100
169.857
169.612
169.363
169.112
168.858
168.601
168.341
168.078
167.812
167.544
167.273
166.999
166.722
166.443
166.160
165.875
165.587
165.296
165.003
164.707
164.407
164.106
163.801
163.494
163.184
162.871
162.555
162.237
161.916
161.592
161.266
160.937
160.605
160.270
159.933
159.593
159.250
158.905
158.557
158.206
157.853
157.497
157.138
156.777
156.413
156.047
155.678
155.306
154.931
154.554
154.175
153.793
153.408
153.021
152.631
152.238
151.843
151.446
151.045
150.643
150.238
149.830
149.420
149.007
148.592
148.174
147.754
147.331
146.906
146.478
146.048
145.615
145.180
144.743
144.303
143.861
143.416
142.969
142.519
142.067
141.613
141.156
140.697
140.235
139.772
139.305
138.837
138.366
137.893
137.417
136.940
136.459
135.977
135.492
135.005
134.516
134.025
133.531
133.035
132.537
132.036
131.534
131.029
130.522
130.012
129.501
128.987
128.471
127.953
127.433
126.911
126.387
125.860
125.332
124.801
124.268
123.733
123.196
122.657
122.116
121.573
121.027
120.480
119.931
119.379
118.826
118.271
117.713
117.154
116.593
116.030
115.465
114.897
114.328
113.757
113.185
112.610
112.033
111.455
110.874
110.292
109.708
109.122
108.534
107.944
107.353
106.760
106.164
105.568
104.969
104.369
103.767
103.163
102.557
101.950
101.341
100.730
100.117
99.503
98.888
98.270
97.651
97.030
96.408
95.784
95.158
94.531
93.902
93.272
92.640
92.006
91.371
90.735
90.096
89.457
88.816
88.173
87.529
86.883
86.236
85.588
84.938
84.287
83.634
82.980
82.324
81.667
81.009
80.349
79.688
79.026
78.362
77.697
77.031
76.363
75.694
75.024
74.352
73.680
73.006
72.331
71.654
70.977
70.298
69.618
68.937
68.254
67.571
66.886
66.201
65.514
64.826
64.137
63.447
62.756
62.064
61.370
60.676
59.981
59.284
58.587
57.889
57.190
56.489
55.788
55.086
54.383
53.679
52.974
52.269
51.562
50.854
50.146
49.437
48.727
48.016
47.304
46.592
45.879
45.165
-153.883
-158.485
-155.652
-143.936
-122.058
-89.001
-44.094
12.896
81.691
161.434
250.646
347.205
448.371
550.856
650.945
744.671
828.041
897.289
949.134
981.030
991.362
979.575
946.224
892.923
822.220
737.395
642.214
540.671
436.731
334.110
236.097
145.431
64.234
-6.014
-64.457
-110.816
-145.326
-168.656
-181.823
-186.107
-182.956
14.642
13.906
13.170
12.434
11.698
10.961
10.224
9.487
8.750
8.013
7.276
6.539
5.801
5.063
4.326
3.588
2.850
2.112
1.374
0.636
-0.102
-0.840
-1.578
-2.316
-3.054
-3.791
-4.529
-5.267
-6.005
-6.742
-7.479
-8.217
-8.954
-9.691
-10.428
-11.164
-11.901
-12.637
-13.373
-14.109
7.965
10.244
12.834
15.750
19.012
22.634
26.631
31.017
35.800
40.988
46.585
52.594
59.009
65.824
73.027
80.602
88.527
96.775
105.314
114.107
123.113
132.283
141.566
150.905
160.241
169.510
178.646
187.580
196.243
204.564
212.474
219.904
226.788
233.063
238.668
243.549
247.658
250.950
253.390
254.950
255.608
255.353
254.179
252.091
249.101
245.231
240.509
234.971
228.661
221.626
213.923
205.610
196.751
187.413
177.664
167.573
157.212
146.649
135.954
125.192
114.426
103.718
93.123
82.694
72.477
62.514
52.844
43.497
34.501
25.877
17.641
9.807
2.380
-4.636
-11.241
-17.440
-23.241
-28.653
-33.689
-38.364
-42.692
-46.693
-50.383
-73.865
-74.538
-75.209
-75.879
-76.547
-77.215
-77.881
-78.545
-79.209
-79.871
-80.531
-81.191
-81.849
-82.505
-83.160
-83.814
-84.466
-85.117
-85.767
-86.415
-87.062
-87.707
-88.351
-88.993
-89.634
-90.273
-90.910
-91.547
-92.181
-92.814
-93.446
-94.076
-94.704
-95.331
-95.956
-96.580
-97.202
-97.822
-98.441
-99.058
-99.673
-100.287
-100.899
-101.509
-102.117
-102.724
-103.329
-103.933
-104.535
-105.134
-105.733
-106.329
-106.923
-107.516
-108.107
-108.696
-109.284
-109.869
-110.453
-111.035
-111.614
-112.192
-112.769
-113.343
-113.915
-114.486
-115.054
-115.621
-116.185
-116.748
-117.309
-117.867
-118.424
-118.979
-119.532
-120.083
-120.631
-121.178
-121.723
-122.265
-122.806
-123.344
-123.881
-124.415
-124.947
-125.478
-126.006
-126.532
-127.055
-127.577
-128.097
-128.614
-129.129
-129.642
-130.153
-130.662
-131.168
-131.673
-132.175
-132.674
-133.172
-133.667
-134.161
-134.651
-135.140
-135.626
-136.110
-136.592
-137.072
-137.549
-138.024
-138.496
-138.966
-139.434
-139.900
-140.363
-140.824
-141.282
-141.738
-142.192
-142.643
-143.092
-143.539
-143.983
-144.425
-144.864
-145.301
-145.735
-146.167
-146.596
-147.023
-147.448
-147.870
-148.289
-148.707
-149.121
-149.533
-149.943
-150.350
-150.754
-151.156
-151.556
-151.952
-152.347
-152.739
-153.128
-153.514
-153.898
-154.280
-154.659
-155.035
-155.409
-155.780
-156.148
-156.514
-156.877
-157.238
-157.595
-157.951
-158.303
-158.653
-159.000
-159.345
-159.687
-160.026
-160.363
-160.697
-161.028
-161.356
-161.682
-162.005
-162.325
-162.643
-162.957
-163.270
-163.579
-163.885
-164.189
-164.490
-164.789
-165.084
-165.377
-165.667
-165.954
-166.238
-166.520
-166.799
-167.075
-167.348
-167.618
-167.886
-168.151
-168.413
-168.672
-168.928
-169.181
-169.432
-169.680
-169.925
-170.167
-170.406
-170.642
-170.875
-171.106
-171.334
-171.558
-171.780
-171.999
-172.215
-172.429
-172.639
-172.846
-173.051
-173.253
-173.451
-173.647
-173.840
-174.030
-174.217
-174.401
-174.582
-174.760
-174.936
-175.108
-175.277
-175.444
-175.607
-175.768
-175.926
-176.080
-176.232
-176.381
-176.526
-176.669
-176.809
-176.946
-177.080
-177.211
-177.339
-177.464
-177.586
-177.705
-177.820
-177.933
-178.044
-178.151
-178.255
-178.356
-178.454
-178.549
-178.641
-178.730
-178.816
-178.899
-178.979
-179.056
-179.130
-179.201
-179.269
-179.334
-179.396
-179.454
-179.510
-179.563
-179.613
-179.660
-179.704
-179.745
-179.782
-179.817
-179.849
-179.878
-179.903
-179.926
-179.946
-179.962
-179.976
-179.986
-179.994
-179.999
-180.000
-179.998
-179.994
-179.986
-179.976
-179.962
-378.279
-382.145
-378.573
-366.115
-343.491
-309.683
-264.022
-206.275
-136.719
-56.211
33.770
131.101
233.043
336.308
437.179
531.692
615.852
685.894
738.537
771.234
782.370
771.391
738.851
686.365
616.481
532.477
438.121
337.407
234.299
132.514
35.340
-54.484
-134.835
-204.234
-261.825
-307.328
-340.979
-363.447
-375.749
-379.164
-375.141
-176.668
-176.525
-176.379
-176.230
-176.079
-175.924
-175.766
-175.606
-175.442
-175.276
-175.106
-174.934
-174.759
-174.580
-174.399
-174.215
-174.028
-173.838
-173.645
-173.449
-173.251
-173.049
-172.844
-172.637
-172.427
-172.213
-171.997
-171.778
-171.556
-171.331
-171.104
-170.873
-170.640
-170.403
-170.164
-169.922
-169.677
-169.429
-169.179
-168.925
-145.860
-142.586
-139.000
-135.083
-130.820
-126.193
-121.188
-115.794
-109.999
-103.796
-97.181
-90.154
-82.717
-74.877
-66.647
-58.044
-49.088
-39.806
-30.231
-20.400
-10.354
-0.142
10.186
20.573
30.958
41.278
51.468
61.457
71.178
80.559
89.531
98.025
105.976
113.318
119.994
125.947
131.130
135.498
139.016
141.656
143.396
144.224
144.136
143.135
141.235
138.456
134.827
130.384
125.169
119.233
112.630
105.419
97.663
89.430
80.787
71.805
62.553
53.102
43.520
33.872
24.223
14.632
5.156
-4.153
-13.248
-22.087
-30.632
-38.853
-46.721
-54.216
-61.321
-68.024
-74.318
-80.199
-85.669
-90.731
-95.394
-99.667
-103.562
-107.095
-110.281
-113.138
-115.682
-138.019
-137.544
-137.067
-136.587
-136.106
-135.622
-135.135
-134.647
-134.156
-133.663
-133.167
-132.669
-132.170
-131.668
-131.163
-130.657
-130.148
-129.637
-129.124
-128.609
-128.091
-127.572
-127.050
-126.526
-126.000
-125.472
-124.942
-124.410
-123.875
-123.339
-122.800
-122.260
-121.717
-121.173
-120.626
-120.077
-119.526
-118.973
-118.419
-117.862
-117.303
-116.742
-116.180
-115.615
-115.048
-114.480
-113.909
-113.337
-112.763
-112.187
-111.609
-111.029
-110.447
-109.863
-109.278
-108.690
-108.101
-107.510
-106.918
-106.323
-105.727
-105.128
-104.529
-103.927
-103.323
-102.718
-102.111
-101.503
-100.893
-100.281
-99.667
-99.051
-98.434
-97.816
-97.195
-96.573
-95.950
-95.325
-94.698
-94.070
-93.440
-92.808
-92.175
-91.540
-90.904
-90.266
-89.627
-88.986
-88.344
-87.700
-87.055
-86.409
-85.760
-85.111
-84.460
-83.808
-83.154
-82.499
-81.842
-81.184
-80.525
-79.864
-79.202
-78.539
-77.874
-77.208
-76.541
-75.872
-75.202
-74.531
-73.859
-73.185
-72.510
-71.834
-71.157
-70.478
-69.799
-69.118
-68.436
-67.753
-67.069
-66.383
-65.697
-65.009
-64.320
-63.631
-62.940
-62.248
-61.555
-60.861
-60.166
-59.470
-58.773
-58.075
-57.376
-56.676
-55.975
-55.273
-54.570
-53.867
-53.162
-52.456
-51.750
-51.043
-50.335
-49.626
-48.916
-48.205
-47.494
-46.782
-46.069
-45.355
-44.640
-43.925
-43.209
-42.492
-41.775
-41.057
-40.338
-39.618
-38.898
-38.177
-37.456
-36.733
-36.011
-35.287
-34.563
-33.839
-33.114
-32.388
-31.662
-30.935
-30.208
-29.480
-28.752
-28.023
-27.294
-26.564
-25.834
-25.104
-24.373
-23.641
-22.909
-22.177
-21.445
-20.712
-19.979
-19.245
-18.511
-17.777
-17.042
-16.308
-15.572
-14.837
-14.102
-13.366
-12.630
-11.893
-11.157
-10.420
-9.683
-8.946
-8.209
-7.472
-6.735
-5.997
-5.260
-4.522
-3.784
-3.046
-2.308
-1.570
-0.832
-0.094
0.644
1.381
2.119
2.857
3.595
4.333
5.071
5.808
6.546
7.283
8.021
8.758
9.495
10.232
10.968
11.705
12.441
13.177
13.913
14.649
15.384
16.119
16.854
17.589
18.323
19.057
19.791
20.524
21.257
21.990
22.722
23.454
24.185
24.916
25.647
26.377
27.107
27.836
28.565
29.294
30.022
30.749
31.476
32.202
32.928
33.653
34.378
35.102
35.826
36.548
37.271
37.992
38.713
39.434
40.154
40.873
41.591
42.309
43.026
43.742
44.457
45.172
45.886
46.599
47.312
48.023
48.734
49.444
50.153
50.862
51.569
52.276
52.981
53.686
54.390
55.093
55.795
56.496
57.197
57.896
58.594
59.291
59.988
60.683
61.377
62.071
62.763
63.454
64.144
64.833
65.521
66.208
-131.440
-134.641
-130.409
-117.294
-94.017
-59.561
-13.257
45.130
115.322
196.461
287.069
385.022
487.583
591.462
692.944
788.062
872.824
943.462
996.698
1029.983
1041.703
1031.304
999.339
947.424
878.107
794.665
700.867
600.706
498.147
396.906
300.272
210.984
131.164
62.291
5.223
-39.763
-72.901
-94.860
-106.658
-109.573
-105.055
93.908
94.537
95.164
95.790
96.414
97.036
97.657
98.276
98.894
99.509
100.124
100.736
101.347
101.956
102.563
103.169
103.773
104.375
104.975
105.574
106.170
106.765
107.359
107.950
108.540
109.128
109.714
110.298
110.880
111.460
112.039
112.616
113.190
113.763
114.334
114.903
115.470
116.035
116.599
117.160
140.528
144.101
147.980
152.185
156.732
161.638
166.917
172.580
178.640
185.102
191.971
199.249
206.931
215.010
223.475
232.309
241.490
250.992
260.783
270.825
281.077
291.490
302.014
312.592
323.163
333.665
344.031
354.192
364.079
373.622
382.751
391.397
399.494
406.978
413.791
419.876
425.186
429.676
433.312
436.064
437.911
438.842
438.851
437.943
436.130
433.434
429.882
425.512
420.365
414.491
407.946
400.787
393.080
384.889
376.284
367.335
358.112
348.683
339.119
329.484
319.843
310.256
300.778
291.462
282.355
273.500
264.932
256.685
248.785
241.253
234.107
227.357
221.012
215.074
209.543
204.414
199.680
195.331
191.354
187.735
184.458
181.505
178.859
156.417
156.781
157.142
157.501
157.856
158.210
158.560
158.908
159.254
159.596
159.936
160.273
160.608
160.940
161.269
161.595
161.919
162.240
162.558
162.874
163.187
163.497
163.804
164.109
164.410
164.710
165.006
165.299
165.590
165.878
166.163
166.445
166.725
167.002
167.276
167.547
167.815
168.081
168.343
168.603
168.860
169.114
169.366
169.614
169.860
170.102
170.342
170.579
170.814
171.045
171.273
171.499
171.722
171.941
172.158
172.372
172.583
172.792
172.997
173.199
173.399
173.595
173.789
173.980
174.167
174.352
174.534
174.713
174.889
175.063
175.233
175.400
175.564
175.726
175.884
176.039
176.192
176.341
176.488
176.632
176.772
176.910
177.044
177.176
177.305
177.431
177.553
177.673
177.790
177.904
178.015
178.122
178.227
178.329
178.428
178.524
178.616
178.706
178.793
178.877
178.958
179.036
179.110
179.182
179.251
179.317
179.379
179.439
179.496
179.549
179.600
179.648
179.692
179.734
179.773
179.808
179.841
179.870
179.897
179.920
179.941
179.958
179.973
179.984
179.992
179.998
180.000
179.999
179.995
179.989
179.979
179.966
179.950
179.931
179.909
179.884
179.857
179.826
179.792
179.755
179.715
179.671
179.625
179.576
179.524
179.469
179.411
179.350
179.286
179.218
179.148
179.075
178.999
178.919
178.837
178.752
178.664
178.572
178.478
178.381
178.281
178.177
178.071
177.962
177.850
177.734
177.616
177.495
177.371
177.244
177.114
176.980
176.844
176.705
176.563
176.418
176.270
176.119
175.965
175.809
175.649
175.486
175.320
175.152
174.980
174.806
174.628
174.448
174.264
174.078
173.889
173.697
173.502
173.304
173.103
172.899
172.692
172.483
172.270
172.055
171.837
171.616
171.391
171.165
170.935
170.702
170.466
170.228
169.987
169.743
169.496
169.246
168.993
168.738
168.479
168.218
167.954
167.687
167.418
167.145
166.870
166.592
166.311
166.027
165.741
165.451
165.159
164.865
164.567
164.267
163.963
163.658
163.349
163.038
162.723
162.407
162.087
161.765
161.440
161.112
160.782
160.448
160.113
159.774
159.433
159.089
158.742
158.393
158.041
157.687
157.329
156.970
156.607
156.242
155.874
155.504
155.131
154.755
154.377
153.996
153.613
153.227
152.838
152.447
152.054
151.657
151.259
150.857
150.454
150.047
149.638
149.227
148.813
148.396
147.978
147.556
147.132
146.706
146.277
145.846
145.412
144.976
144.537
144.096
143.653
-55.126
-59.461
-56.362
-44.383
-22.243
11.076
56.241
113.488
182.538
262.535
351.999
448.808
550.224
652.956
753.289
847.259
930.871
1000.359
1052.442
1084.575
1095.142
1083.588
1050.468
997.397
926.922
842.322
747.366
646.045
542.326
439.924
342.128
251.678
170.695
100.658
42.426
-3.725
-38.029
-61.154
-74.119
-78.201
-74.851
122.944
122.404
121.862
121.318
120.771
120.223
119.673
119.121
118.566
118.010
117.452
116.892
116.330
115.765
115.199
114.631
114.061
113.490
112.916
112.340
111.763
111.183
110.602
110.019
109.434
108.847
108.258
107.668
107.075
106.481
105.885
105.288
104.688
104.087
103.484
102.879
102.273
101.665
101.055
100.443
122.639
125.040
127.747
130.781
134.157
137.892
142.000
146.494
151.383
156.677
162.377
168.486
175.001
181.913
189.212
196.880
204.896
213.233
221.860
230.738
239.827
249.079
258.441
267.858
277.270
286.612
295.820
304.823
313.554
321.941
329.915
337.407
344.351
350.683
356.344
361.279
365.440
368.782
371.270
372.876
373.578
373.364
372.230
370.180
367.227
363.391
358.701
353.193
346.911
339.903
332.223
323.933
315.094
305.774
296.041
285.965
275.616
265.063
254.376
243.620
232.859
222.153
211.558
201.127
190.906
180.938
171.260
161.903
152.895
144.258
136.007
128.154
120.708
113.671
107.042
100.817
94.989
89.547
84.479
79.771
75.407
71.369
67.640
44.115
43.400
42.683
41.966
41.248
40.529
39.810
39.090
38.369
37.648
36.926
36.203
35.480
34.756
34.032
33.307
32.581
31.855
31.129
30.401
29.674
28.946
28.217
27.488
26.758
26.028
25.298
24.567
23.836
23.104
22.372
21.640
20.907
20.174
19.440
18.706
17.972
17.238
16.503
15.768
15.033
14.297
13.561
12.825
12.089
11.353
10.616
9.879
9.143
8.405
7.668
6.931
6.193
5.456
4.718
3.980
3.242
2.505
1.767
1.029
0.291
-0.447
-1.185
-1.923
-2.661
-3.399
-4.137
-4.874
-5.612
-6.350
-7.087
-7.825
-8.562
-9.299
-10.036
-10.772
-11.509
-12.245
-12.982
-13.717
-14.453
-15.189
-15.924
-16.659
-17.394
-18.128
-18.862
-19.596
-20.329
-21.062
-21.795
-22.527
-23.259
-23.991
-24.722
-25.453
-26.183
-26.913
-27.643
-28.372
-29.100
-29.828
-30.556
-31.283
-32.009
-32.735
-33.460
-34.185
-34.909
-35.633
-36.356
-37.079
-37.801
-38.522
-39.242
-39.962
-40.681
-41.400
-42.118
-42.835
-43.551
-44.267
-44.982
-45.696
-46.410
-47.122
-47.834
-48.545
-49.255
-49.965
-50.673
-51.381
-52.088
-52.794
-53.499
-54.203
-54.906
-55.609
-56.310
-57.010
-57.710
-58.409
-59.106
-59.803
-60.498
-61.193
-61.886
-62.579
-63.270
-63.960
-64.650
-65.338
-66.025
-66.711
-67.396
-68.080
-68.762
-69.444
-70.124
-70.803
-71.481
-72.157
-72.833
-73.507
-74.180
-74.852
-75.523
-76.192
-76.860
-77.526
-78.192
-78.856
-79.519
-80.180
-80.840
-81.499
-82.156
-82.812
-83.466
-84.120
-84.771
-85.422
-86.070
-86.718
-87.364
-88.008
-88.651
-89.293
-89.933
-90.571
-91.208
-91.844
-92.478
-93.110
-93.741
-94.370
-94.998
-95.624
-96.248
-96.871
-97.492
-98.112
-98.730
-99.346
-99.960
-100.573
-101.184
-101.794
-102.402
-103.008
-103.612
-104.215
-104.816
-105.415
-106.012
-106.607
-107.201
-107.793
-108.383
-108.971
-109.558
-110.142
-110.725
-111.306
-111.885
-112.462
-113.038
-113.611
-114.182
-114.752
-115.320
-115.885
-116.449
-117.011
-117.570
-118.128
-118.684
-119.238
-119.790
-120.340
-120.887
-121.433
-121.977
-122.519
-123.058
-123.596
-124.131
-124.665
-125.196
-125.725
-126.252
-126.777
-127.300
-127.821
-128.339
-128.855
-129.370
-129.882
-130.391
-130.899
-131.405
-131.908
-132.409
-132.908
-133.404
-133.899
-134.391
-134.880
-135.368
-135.853
-136.336
-136.817
-137.295
-137.771
-138.245
-138.717
-139.186
-139.653
-140.117
-140.579
-141.039
-141.496
-141.951
-142.404
-142.854
-143.302
-143.747
-144.190
-144.630
-145.069
-145.504
-145.937
-146.368
-146.796
-147.222
-147.646
-148.067
-148.485
-148.901
-149.314
-149.725
-150.133
-150.539
-150.943
-151.343
-151.742
-350.470
-354.750
-351.591
-339.546
-317.336
-283.943
-238.698
-181.366
-112.226
-32.134
57.430
154.344
255.869
358.715
459.169
553.263
637.004
706.627
758.850
791.127
801.842
790.443
757.482
704.575
634.269
549.843
455.065
353.928
250.398
148.189
50.592
-39.655
-120.430
-190.253
-248.268
-294.196
-328.272
-351.165
-363.892
-367.732
-364.135
-166.087
-166.371
-166.651
-166.928
-167.203
-167.475
-167.744
-168.010
-168.274
-168.534
-168.792
-169.047
-169.299
-169.548
-169.795
-170.038
-170.279
-170.517
-170.752
-170.984
-171.213
-171.439
-171.663
-171.883
-172.101
-172.316
-172.527
-172.736
-172.943
-173.146
-173.346
-173.543
-173.738
-173.929
-174.118
-174.303
-174.486
-174.666
-174.843
-175.017
-152.379
-149.531
-146.372
-142.883
-139.046
-134.846
-130.268
-125.299
-119.931
-114.154
-107.965
-101.363
-94.352
-86.938
-79.133
-70.954
-62.423
-53.566
-44.415
-35.007
-25.385
-15.596
-5.691
4.272
14.235
24.133
33.900
43.468
52.767
61.727
70.278
78.352
85.882
92.805
99.060
104.595
109.359
113.309
116.409
118.631
119.954
120.365
119.860
118.443
116.127
112.933
108.889
104.032
98.403
92.054
85.037
77.413
69.246
60.601
51.547
42.154
32.492
22.632
12.640
2.584
-7.474
-17.472
-27.355
-37.070
-46.571
-55.815
-64.766
-73.391
-81.663
-89.561
-97.068
-104.173
-110.868
-117.150
-123.020
-128.482
-133.543
-138.214
-142.507
-146.436
-150.019
-153.270
-156.210
-178.941
-178.859
-178.775
-178.687
-178.597
-178.504
-178.407
-178.308
-178.205
-178.100
-177.991
-177.880
-177.765
-177.648
-177.528
-177.404
-177.278
-177.149
-177.016
-176.881
-176.743
-176.601
-176.457
-176.310
-176.160
-176.007
-175.851
-175.692
-175.530
-175.365
-175.197
-175.026
-174.852
-174.676
-174.496
-174.313
-174.128
-173.939
-173.748
-173.554
-173.357
-173.157
-172.954
-172.748
-172.539
-172.327
-172.113
-171.895
-171.675
-171.451
-171.225
-170.996
-170.764
-170.529
-170.292
-170.051
-169.808
-169.562
-169.313
-169.061
-168.806
-168.548
-168.288
-168.025
-167.758
-167.490
-167.218
-166.943
-166.666
-166.386
-166.103
-165.817
-165.529
-165.237
-164.943
-164.646
-164.347
-164.044
-163.739
-163.431
-163.121
-162.807
-162.491
-162.172
-161.851
-161.526
-161.199
-160.870
-160.537
-160.202
-159.864
-159.524
-159.181
-158.835
-158.486
-158.135
-157.781
-157.425
-157.066
-156.704
-156.339
-155.972
-155.603
-155.230
-154.855
-154.478
-154.098
-153.715
-153.330
-152.942
-152.552
-152.159
-151.763
-151.365
-150.964
-150.561
-150.155
-149.747
-149.336
-148.923
-148.507
-148.089
-147.668
-147.245
-146.820
-146.391
-145.961
-145.528
-145.092
-144.654
-144.214
-143.771
-143.326
-142.878
-142.428
-141.976
-141.521
-141.063
-140.604
-140.142
-139.678
-139.211
-138.742
-138.271
-137.797
-137.321
-136.843
-136.362
-135.879
-135.394
-134.907
-134.417
-133.925
-133.431
-132.935
-132.436
-131.935
-131.432
-130.926
-130.419
-129.909
-129.397
-128.883
-128.367
-127.849
-127.328
-126.805
-126.280
-125.754
-125.224
-124.693
-124.160
-123.625
-123.087
-122.548
-122.006
-121.463
-120.917
-120.369
-119.820
-119.268
-118.714
-118.158
-117.601
-117.041
-116.479
-115.916
-115.350
-114.783
-114.213
-113.642
-113.069
-112.493
-111.916
-111.337
-110.757
-110.174
-109.589
-109.003
-108.415
-107.825
-107.233
-106.639
-106.044
-105.447
-104.848
-104.247
-103.645
-103.040
-102.434
-101.827
-101.217
-100.606
-99.994
-99.379
-98.763
-98.145
-97.526
-96.905
-96.282
-95.658
-95.032
-94.404
-93.775
-93.144
-92.512
-91.878
-91.243
-90.606
-89.967
-89.327
-88.686
-88.043
-87.399
-86.753
-86.105
-85.457
-84.806
-84.155
-83.502
-82.847
-82.191
-81.534
-80.876
-80.216
-79.554
-78.892
-78.228
-77.562
-76.896
-76.228
-75.559
-74.888
-74.217
-73.544
-72.869
-72.194
-71.517
-70.840
-70.161
-69.480
-68.799
-68.116
-67.433
-66.748
-66.062
-65.375
-64.687
-63.998
-63.307
-62.616
-61.924
-61.230
-60.536
-59.840
-59.144
-58.446
-57.748
-57.048
-56.348
-55.647
-54.944
-54.241
-53.537
-52.832
-52.126
-249.752
-252.931
-248.673
-235.531
-212.225
-177.738
-131.401
-72.979
-2.750
78.428
169.076
267.073
369.679
473.605
575.135
670.304
755.119
825.813
879.105
912.449
924.230
913.893
881.993
830.145
760.896
677.525
583.800
483.713
381.231
280.069
183.515
94.309
14.574
-54.213
-111.193
-156.089
-189.134
-210.999
-222.701
-225.518
-220.900
-21.834
-21.102
-20.369
-19.635
-18.902
-18.168
-17.433
-16.699
-15.964
-15.228
-14.493
-13.757
-13.021
-12.285
-11.549
-10.812
-10.075
-9.339
-8.602
-7.864
-7.127
-6.390
-5.652
-4.914
-4.177
-3.439
-2.701
-1.963
-1.225
-0.487
0.251
0.989
1.727
2.465
3.203
3.940
4.678
5.416
6.154
6.891
30.437
34.190
38.251
42.640
47.373
52.466
57.933
63.788
70.040
76.697
83.763
91.239
99.121
107.402
116.071
125.110
134.499
144.210
154.212
164.467
174.933
185.563
196.304
207.102
217.895
228.620
239.211
249.599
259.715
269.488
278.849
287.729
296.062
303.784
310.835
317.162
322.714
327.449
331.331
334.330
336.427
337.609
337.870
337.217
335.661
333.222
329.930
325.821
320.938
315.329
309.049
302.159
294.721
286.802
278.470
269.795
260.848
251.698
242.413
233.059
223.701
214.398
205.206
196.178
187.360
178.795
170.520
162.567
154.962
147.728
140.880
134.431
128.388
122.753
117.527
112.704
108.278
104.239
100.573
97.267
94.303
91.667
89.338
67.214
67.898
68.581
69.262
69.943
70.622
71.301
71.978
72.653
73.328
74.001
74.673
75.344
76.014
76.682
77.349
78.015
78.679
79.342
80.004
80.665
81.324
81.981
82.638
83.292
83.946
84.598
85.249
85.898
86.546
87.192
87.837
88.480
89.122
89.763
90.402
91.039
91.675
92.309
92.942
93.573
94.203
94.831
95.457
96.082
96.705
97.327
97.947
98.565
99.182
99.797
100.410
101.022
101.632
102.240
102.847
103.452
104.055
104.656
105.255
105.853
106.449
107.043
107.636
108.226
108.815
109.402
109.987
110.570
111.152
111.731
112.309
112.885
113.459
114.031
114.601
115.169
115.735
116.299
116.861
117.422
117.980
118.536
119.091
119.643
120.194
120.742
121.288
121.832
122.375
122.915
123.453
123.989
124.523
125.055
125.584
126.112
126.638
127.161
127.682
128.201
128.718
129.233
129.746
130.256
130.764
131.270
131.774
132.276
132.775
133.272
133.767
134.260
134.750
135.238
135.724
136.208
136.689
137.168
137.645
138.119
138.591
139.061
139.529
139.994
140.456
140.917
141.375
141.830
142.283
142.734
143.183
143.629
144.072
144.513
144.952
145.389
145.822
146.254
146.683
147.109
147.533
147.955
148.374
148.790
149.205
149.616
150.025
150.432
150.836
151.237
151.636
152.032
152.426
152.817
153.206
153.592
153.976
154.357
154.735
155.111
155.484
155.854
156.222
156.587
156.950
157.310
157.667
158.022
158.374
158.724
159.070
159.414
159.756
160.094
160.430
160.764
161.094
161.422
161.747
162.070
162.389
162.706
163.021
163.332
163.641
163.947
164.250
164.551
164.849
165.143
165.436
165.725
166.012
166.296
166.577
166.855
167.130
167.403
167.673
167.940
168.204
168.465
168.724
168.979
169.232
169.482
169.729
169.974
170.215
170.454
170.689
170.922
171.152
171.379
171.603
171.825
172.043
172.259
172.471
172.681
172.888
173.092
173.293
173.491
173.686
173.879
174.068
174.254
174.438
174.618
174.796
174.971
175.143
175.311
175.477
175.640
175.800
175.957
176.111
176.262
176.410
176.556
176.698
176.837
176.973
177.106
177.237
177.364
177.488
177.610
177.728
177.844
177.956
178.065
178.172
178.275
178.376
178.473
178.567
178.659
178.747
178.833
178.915
178.994
179.071
179.144
179.215
179.282
179.346
179.408
179.466
179.521
179.574
179.623
179.669
179.712
179.752
179.790
179.824
179.855
179.883
179.908
179.930
179.949
179.965
179.978
179.988
179.995
179.999
180.000
179.998
179.993
179.984
179.973
179.959
179.942
179.921
179.898
179.872
179.842
179.810
179.775
179.736
179.695
179.650
-18.730
-22.667
-19.172
-6.795
15.741
49.454
95.014
152.655
222.099
302.488
392.344
489.545
591.351
694.473
795.195
889.553
973.554
1043.428
1095.898
1128.417
1139.368
1128.199
1095.462
1042.773
972.680
888.462
793.886
692.945
589.605
487.581
390.162
300.088
219.480
149.819
91.960
46.182
12.250
-10.503
-23.097
-26.810
-23.091
175.072
174.899
174.723
174.544
174.362
174.178
173.990
173.799
173.606
173.409
173.210
173.008
172.803
172.595
172.384
172.170
171.953
171.734
171.511
171.286
171.057
170.826
170.592
170.355
170.116
169.873
169.627
169.379
169.128
168.874
168.617
168.357
168.095
167.830
167.561
167.290
167.017
166.740
166.461
166.178
188.702
191.430
194.464
197.822
201.522
205.579
210.009
214.823
220.032
225.643
231.661
238.086
244.915
252.141
259.751
267.730
276.056
284.702
293.636
302.821
312.215
321.770
331.435
341.154
350.865
360.507
370.012
379.312
388.337
397.018
405.285
413.068
420.302
426.923
432.872
438.093
442.539
446.165
448.935
450.822
451.804
451.869
451.012
449.237
446.559
442.996
438.578
433.340
427.327
420.586
413.173
405.148
396.573
387.515
378.043
368.226
358.135
347.839
337.407
326.906
316.397
305.942
295.597
285.414
275.441
265.718
256.284
247.170
238.403
230.005
221.993
214.377
207.166
200.363
193.967
187.973
182.374
177.160
172.320
167.837
163.696
159.880
156.372
133.067
132.569
132.068
131.566
131.061
130.554
130.045
129.534
129.020
128.505
127.987
127.467
126.945
126.420
125.894
125.365
124.835
124.302
123.767
123.230
122.691
122.150
121.607
121.062
120.515
119.966
119.415
118.862
118.306
117.749
117.190
116.629
116.066
115.501
114.934
114.365
113.794
113.221
112.647
112.070
111.492
110.911
110.329
109.745
109.159
108.572
107.982
107.391
106.798
106.203
105.606
105.007
104.407
103.805
103.201
102.596
101.989
101.380
100.769
100.157
99.543
98.927
98.310
97.691
97.070
96.448
95.824
95.198
94.571
93.942
93.312
92.680
92.047
91.412
90.775
90.137
89.498
88.857
88.214
87.570
86.925
86.278
85.629
84.980
84.328
83.676
83.022
82.366
81.709
81.051
80.391
79.730
79.068
78.404
77.739
77.073
76.406
75.737
75.067
74.395
73.723
73.049
72.374
71.697
71.020
70.341
69.661
68.980
68.298
67.615
66.930
66.245
65.558
64.870
64.181
63.491
62.800
62.108
61.415
60.721
60.025
59.329
58.632
57.934
57.234
56.534
55.833
55.131
54.428
53.724
53.019
52.314
51.607
50.900
50.192
49.482
48.772
48.062
47.350
46.638
45.925
45.211
44.496
43.780
43.064
42.347
41.630
40.911
40.192
39.473
38.752
38.031
37.310
36.587
35.865
35.141
34.417
33.692
32.967
32.241
31.515
30.788
30.061
29.333
28.605
27.876
27.147
26.417
25.687
24.956
24.225
23.493
22.762
22.029
21.297
20.564
19.830
19.097
18.363
17.629
16.894
16.159
15.424
14.689
13.953
13.217
12.481
11.745
11.008
10.271
9.535
8.798
8.060
7.323
6.586
5.848
5.111
4.373
3.635
2.897
2.159
1.421
0.683
-0.055
-0.793
-1.531
-2.268
-3.006
-3.744
-4.482
-5.220
-5.957
-6.695
-7.432
-8.170
-8.907
-9.644
-10.381
-11.117
-11.854
-12.590
-13.326
-14.062
-14.797
-15.533
-16.268
-17.003
-17.737
-18.471
-19.205
-19.939
-20.672
-21.405
-22.138
-22.870
-23.602
-24.333
-25.064
-25.795
-26.525
-27.255
-27.984
-28.713
-29.441
-30.169
-30.896
-31.623
-32.349
-33.075
-33.800
-34.524
-35.248
-35.972
-36.694
-37.417
-38.138
-38.859
-39.579
-40.299
-41.018
-41.736
-42.453
-43.170
-43.886
-44.602
-45.316
-46.030
-46.743
-47.455
-48.167
-48.878
-49.587
-50.296
-51.005
-51.712
-52.418
-53.124
-53.828
-54.532
-55.235
-55.937
-56.638
-57.338
-58.037
-58.735
-257.765
-262.348
-259.494
-247.755
-225.852
-192.768
-147.834
-90.814
-21.987
57.789
147.036
243.632
344.837
447.362
547.493
641.263
724.679
793.974
845.868
877.815
888.199
876.466
843.171
789.928
719.285
634.520
539.402
437.924
334.050
231.497
133.554
42.960
-38.164
-108.337
-166.703
-212.984
-247.414
-270.662
-283.746
-287.945
-284.707
-87.020
-87.666
-88.309
-88.952
-89.593
-90.232
-90.870
-91.506
-92.141
-92.774
-93.405
-94.036
-94.664
-95.291
-95.916
-96.540
-97.162
-97.782
-98.401
-99.018
-99.634
-100.247
-100.860
-101.470
-102.079
-102.686
-103.291
-103.894
-104.496
-105.096
-105.694
-106.291
-106.885
-107.478
-108.069
-108.659
-109.246
-109.832
-110.415
-110.997
-88.768
-86.331
-83.583
-80.506
-77.083
-73.297
-69.134
-64.582
-59.631
-54.272
-48.503
-42.321
-35.731
-28.740
-21.358
-13.604
-5.498
2.933
11.657
20.636
29.829
39.188
48.662
58.193
67.723
77.187
86.520
95.652
104.515
113.038
121.151
128.786
135.876
142.358
148.173
153.265
157.586
161.092
163.747
165.524
166.400
166.364
165.411
163.546
160.781
157.137
152.642
147.333
141.252
134.449
126.979
118.901
110.278
101.177
91.667
81.817
71.698
61.378
50.927
40.411
29.894
19.434
9.090
-1.088
-11.052
-20.760
-30.174
-39.264
-48.001
-56.365
-64.339
-71.910
-79.073
-85.823
-92.161
-98.092
-103.623
-108.764
-113.528
-117.928
-121.982
-125.706
-129.118
-152.322
-152.714
-153.103
-153.490
-153.874
-154.256
-154.635
-155.011
-155.385
-155.756
-156.125
-156.491
-156.854
-157.215
-157.573
-157.928
-158.281
-158.631
-158.978
-159.323
-159.665
-160.005
-160.341
-160.675
-161.007
-161.335
-161.661
-161.984
-162.305
-162.622
-162.937
-163.250
-163.559
-163.866
-164.170
-164.471
-164.770
-165.065
-165.358
-165.648
-165.936
-166.220
-166.502
-166.781
-167.057
-167.331
-167.601
-167.869
-168.134
-168.396
-168.655
-168.912
-169.165
-169.416
-169.664
-169.909
-170.151
-170.390
-170.627
-170.861
-171.091
-171.319
-171.544
-171.766
-171.985
-172.202
-172.415
-172.626
-172.833
-173.038
-173.240
-173.439
-173.635
-173.828
-174.018
-174.205
-174.389
-174.571
-174.749
-174.925
-175.097
-175.267
-175.433
-175.597
-175.758
-175.916
-176.070
-176.222
-176.371
-176.517
-176.660
-176.800
-176.937
-177.071
-177.202
-177.331
-177.456
-177.578
-177.697
-177.813
-177.926
-178.037
-178.144
-178.248
-178.349
-178.447
-178.543
-178.635
-178.724
-178.810
-178.893
-178.974
-179.051
-179.125
-179.196
-179.264
-179.330
-179.392
-179.451
-179.507
-179.560
-179.610
-179.657
-179.701
-179.742
-179.780
-179.815
-179.847
-179.876
-179.902
-179.925
-179.944
-179.961
-179.975
-179.986
-179.994
-179.998
-180.000
-179.999
-179.994
-179.987
-179.977
-179.963
-179.947
-179.927
-179.905
-179.879
-179.851
-179.819
-179.784
-179.747
-179.706
-179.662
-179.616
-179.566
-179.513
-179.458
-179.399
-179.337
-179.272
-179.204
-179.134
-179.060
-178.983
-178.903
-178.820
-178.734
-178.646
-178.554
-178.459
-178.361
-178.260
-178.156
-178.049
-177.940
-177.827
-177.711
-177.592
-177.470
-177.345
-177.218
-177.087
-176.953
-176.817
-176.677
-176.534
-176.389
-176.240
-176.089
-175.934
-175.777
-175.616
-175.453
-175.287
-175.117
-174.945
-174.770
-174.592
-174.411
-174.227
-174.040
-173.850
-173.658
-173.462
-173.263
-173.062
-172.858
-172.650
-172.440
-172.227
-172.011
-171.792
-171.570
-171.346
-171.118
-170.888
-170.655
-170.419
-170.180
-169.938
-169.693
-169.445
-169.195
-168.942
-168.686
-168.427
-168.165
-167.900
-167.633
-167.363
-167.090
-166.814
-166.535
-166.254
-165.969
-165.682
-165.393
-165.100
-164.805
-164.506
-164.206
-163.902
-163.595
-163.286
-162.974
-162.660
-162.342
-162.022
-161.699
-161.374
-161.045
-160.714
-160.381
-160.044
-159.705
-159.364
-159.019
-158.672
-158.322
-157.970
-157.615
-157.257
-156.897
-156.534
-156.168
-155.800
-155.429
-155.055
-154.679
-154.300
-153.919
-153.535
-153.149
-152.760
-152.368
-151.974
-151.577
-151.178
-150.776
-150.372
-149.965
-149.555
-149.143
-148.729
-148.312
-147.893
-147.471
-147.046
-146.619
-146.190
-145.758
-145.324
-144.887
-144.448
-144.007
-143.563
-143.116
-142.668
-142.217
-141.763
-141.307
-140.849
-140.388
-139.925
-139.460
-138.992
-336.855
-340.269
-336.245
-323.335
-300.260
-266.002
-219.893
-161.697
-91.693
-10.738
79.688
177.465
279.851
383.560
484.874
579.829
664.431
734.913
787.996
821.132
832.706
822.164
790.060
738.010
668.560
584.991
491.068
390.785
288.109
186.754
90.009
0.614
-79.310
-148.283
-205.448
-250.527
-283.754
-305.799
-317.679
-320.674
-316.231
-117.339
-116.778
-116.216
-115.651
-115.085
-114.516
-113.946
-113.374
-112.800
-112.224
-111.646
-111.066
-110.484
-109.901
-109.315
-108.728
-108.139
-107.548
-106.956
-106.361
-105.765
-105.167
-104.567
-103.965
-103.362
-102.757
-102.150
-101.542
-100.932
-100.320
-99.706
-99.091
-98.474
-97.855
-97.235
-96.613
-95.990
-95.365
-94.738
-94.110
-70.671
-67.024
-63.067
-58.781
-54.149
-49.155
-43.784
-38.025
-31.867
-25.302
-18.327
-10.940
-3.145
5.051
13.637
22.594
31.903
41.535
51.460
61.640
72.033
82.592
93.264
103.993
114.720
125.381
135.909
146.236
156.292
166.008
175.313
184.139
192.419
200.090
207.093
213.372
218.879
223.570
227.410
230.370
232.428
233.573
233.800
233.113
231.525
229.057
225.738
221.602
216.694
211.063
204.762
197.853
190.397
182.462
174.117
165.430
156.472
147.313
138.021
128.663
119.301
109.996
100.805
91.778
82.964
74.405
66.137
58.193
50.599
43.377
36.543
30.110
24.084
18.469
13.264
8.464
4.063
0.050
-3.588
-6.864
-9.796
-12.399
-14.693
-36.780
-36.057
-35.334
-34.610
-33.885
-33.160
-32.435
-31.708
-30.982
-30.254
-29.527
-28.798
-28.070
-27.341
-26.611
-25.881
-25.150
-24.419
-23.688
-22.956
-22.224
-21.492
-20.759
-20.026
-19.292
-18.558
-17.824
-17.089
-16.355
-15.620
-14.884
-14.149
-13.413
-12.677
-11.941
-11.204
-10.467
-9.731
-8.994
-8.257
-7.519
-6.782
-6.044
-5.307
-4.569
-3.831
-3.093
-2.356
-1.618
-0.880
-0.142
0.596
1.334
2.072
2.810
3.548
4.286
5.023
5.761
6.499
7.236
7.973
8.711
9.448
10.185
10.921
11.658
12.394
13.130
13.866
14.602
15.337
16.072
16.807
17.542
18.276
19.010
19.744
20.477
21.210
21.943
22.675
23.407
24.139
24.870
25.600
26.331
27.060
27.790
28.519
29.247
29.975
30.702
31.429
32.156
32.882
33.607
34.332
35.056
35.779
36.502
37.225
37.946
38.667
39.388
40.108
40.827
41.545
42.263
42.980
43.696
44.411
45.126
45.840
46.554
47.266
47.978
48.689
49.399
50.108
50.816
51.524
52.230
52.936
53.641
54.345
55.048
55.750
56.452
57.152
57.851
58.549
59.247
59.943
60.639
61.333
62.026
62.718
63.410
64.100
64.789
65.477
66.164
66.849
67.534
68.218
68.900
69.581
70.261
70.940
71.618
72.294
72.969
73.643
74.316
74.988
75.658
76.327
76.995
77.661
78.326
78.990
79.652
80.313
80.973
81.632
82.289
82.944
83.598
84.251
84.903
85.553
86.201
86.848
87.494
88.138
88.781
89.422
90.062
90.700
91.337
91.972
92.606
93.238
93.868
94.497
95.124
95.750
96.374
96.997
97.617
98.237
98.854
99.470
100.084
100.697
101.308
101.917
102.524
103.130
103.734
104.336
104.937
105.535
106.132
106.727
107.321
107.912
108.502
109.090
109.676
110.260
110.843
111.423
112.002
112.579
113.154
113.727
114.298
114.867
115.434
115.999
116.563
117.124
117.683
118.241
118.796
119.350
119.901
120.450
120.998
121.543
122.086
122.628
123.167
123.704
124.239
124.772
125.303
125.832
126.358
126.883
127.405
127.925
128.444
128.959
129.473
129.985
130.494
131.001
131.506
132.009
132.510
133.008
133.504
133.998
134.490
134.979
135.466
135.951
136.434
136.914
137.392
137.867
138.341
138.812
139.280
139.747
140.210
140.672
141.131
141.588
142.043
142.495
142.944
143.392
143.837
144.279
144.719
145.157
145.592
146.025
146.455
146.883
147.308
147.731
-50.182
-53.650
-49.686
-36.840
-13.834
20.350
66.381
124.493
194.409
275.271
365.599
463.273
565.553
669.149
770.346
865.179
949.654
1020.005
1072.951
1105.946
1117.374
1106.682
1074.423
1022.213
952.598
868.858
774.761
674.300
571.439
469.895
372.957
283.363
203.236
134.056
76.678
31.382
-2.067
-24.339
-36.451
-39.681
-35.479
163.167
163.477
163.785
164.089
164.391
164.690
164.987
165.281
165.571
165.860
166.145
166.427
166.707
166.984
167.258
167.530
167.798
168.064
168.327
168.587
168.844
169.098
169.350
169.598
169.844
170.087
170.327
170.564
170.799
171.030
171.259
171.485
171.707
171.927
172.144
172.359
172.570
172.778
172.984
173.186
196.195
199.407
202.925
206.768
210.952
215.493
220.407
225.704
231.397
237.491
243.992
250.900
258.211
265.919
274.012
282.473
291.281
300.408
309.823
319.489
329.363
339.399
349.544
359.742
369.933
380.054
390.038
399.816
409.320
418.478
427.222
435.483
443.193
450.290
456.715
462.412
467.332
471.433
474.678
477.038
478.493
479.031
478.646
477.344
475.136
472.045
468.097
463.330
457.786
451.514
444.570
437.012
428.904
420.313
411.307
401.957
392.331
382.500
372.532
362.493
352.448
342.455
332.572
322.850
313.336
304.073
295.098
286.443
278.134
270.193
262.637
255.477
248.721
242.372
236.430
230.889
225.742
220.980
216.590
212.557
208.866
205.499
202.437
179.580
179.528
179.473
179.415
179.354
179.290
179.223
179.153
179.080
179.004
178.925
178.843
178.758
178.669
178.578
178.484
178.387
178.287
178.184
178.078
177.969
177.857
177.742
177.624
177.503
177.379
177.252
177.122
176.989
176.853
176.714
176.572
176.428
176.280
176.129
175.975
175.819
175.659
175.497
175.331
175.163
174.991
174.817
174.640
174.459
174.276
174.090
173.901
173.709
173.514
173.317
173.116
172.912
172.706
172.496
172.284
172.069
171.851
171.630
171.406
171.179
170.950
170.717
170.482
170.243
170.002
169.758
169.512
169.262
169.009
168.754
168.496
168.235
167.971
167.704
167.435
167.163
166.887
166.610
166.329
166.045
165.759
165.470
165.178
164.883
164.586
164.286
163.983
163.677
163.369
163.058
162.744
162.427
162.108
161.785
161.461
161.133
160.803
160.470
160.134
159.796
159.455
159.111
158.765
158.416
158.064
157.709
157.352
156.993
156.630
156.265
155.898
155.528
155.155
154.779
154.401
154.021
153.638
153.252
152.863
152.472
152.079
151.683
151.284
150.883
150.479
150.073
149.664
149.253
148.839
148.423
148.004
147.583
147.159
146.733
146.305
145.873
145.440
145.004
144.565
144.124
143.681
143.235
142.787
142.337
141.884
141.429
140.971
140.511
140.048
139.584
139.116
138.647
138.175
137.701
137.225
136.746
136.265
135.782
135.296
134.808
134.318
133.826
133.331
132.834
132.335
131.833
131.330
130.824
130.316
129.806
129.294
128.779
128.262
127.744
127.223
126.699
126.174
125.647
125.117
124.586
124.052
123.516
122.978
122.439
121.897
121.353
120.806
120.258
119.708
119.156
118.602
118.046
117.488
116.928
116.366
115.802
115.236
114.668
114.098
113.526
112.953
112.377
111.800
111.220
110.639
110.056
109.471
108.884
108.296
107.706
107.113
106.519
105.924
105.326
104.727
104.126
103.523
102.918
102.312
101.704
101.094
100.483
99.870
99.255
98.638
98.020
97.400
96.779
96.156
95.531
94.905
94.277
93.648
93.017
92.384
91.750
91.114
90.477
89.838
89.198
88.556
87.913
87.268
86.622
85.975
85.325
84.675
84.023
83.370
82.715
82.059
81.401
80.742
80.082
79.421
78.758
78.093
77.428
76.761
76.093
75.423
74.753
74.081
73.408
72.733
72.057
71.381
70.702
70.023
69.343
68.661
67.978
67.295
66.610
65.923
65.236
64.548
63.858
63.168
62.476
61.784
61.090
60.395
59.700
59.003
58.305
57.607
56.907
56.206
55.505
54.802
54.099
53.395
52.689
51.983
51.276
50.568
49.860
49.150
48.440
47.729
47.017
46.304
45.590
44.876
-154.172
-158.774
-155.942
-144.226
-122.348
-89.291
-44.385
12.605
81.399
161.143
250.354
346.913
448.079
550.564
650.652
744.378
827.748
896.995
948.841
980.737
991.068
979.281
945.929
892.629
821.926
737.100
641.919
540.375
436.436
333.814
235.801
145.135
63.938
-6.310
-64.753
-111.113
-145.623
-168.953
-182.120
-186.404
-183.253
14.344
13.609
12.873
12.136
11.400
10.663
9.927
9.190
8.453
7.715
6.978
6.241
5.503
4.765
4.028
3.290
2.552
1.814
1.076
0.338
-0.400
-1.138
-1.876
-2.614
-3.352
-4.090
-4.827
-5.565
-6.303
-7.040
-7.777
-8.515
-9.252
-9.989
-10.725
-11.462
-12.198
-12.934
-13.670
-14.406
7.667
9.947
12.537
15.454
18.715
22.337
26.335
30.720
35.503
40.692
46.290
52.298
58.713
65.529
72.732
80.307
88.232
96.480
105.020
113.813
122.819
131.989
141.272
150.612
159.948
169.217
178.353
187.287
195.950
204.272
212.182
219.613
226.497
232.772
238.377
243.259
247.368
250.660
253.101
254.661
255.319
255.064
253.890
251.802
248.813
244.944
240.222
234.684
228.374
221.340
213.637
205.324
196.466
187.128
177.379
167.289
156.928
146.366
135.671
124.909
114.144
103.437
92.842
82.413
72.196
62.234
52.564
43.218
34.222
25.598
17.363
9.529
2.103
-4.912
-11.517
-17.716
-23.516
-28.928
-33.963
-38.637
-42.966
-46.966
-50.655
-74.137
-74.809
-75.480
-76.149
-76.817
-77.484
-78.149
-78.813
-79.476
-80.138
-80.798
-81.457
-82.114
-82.770
-83.425
-84.078
-84.730
-85.380
-86.029
-86.676
-87.323
-87.967
-88.610
-89.252
-89.892
-90.531
-91.168
-91.803
-92.437
-93.070
-93.701
-94.330
-94.958
-95.584
-96.208
-96.831
-97.452
-98.072
-98.690
-99.306
-99.921
-100.534
-101.145
-101.755
-102.363
-102.969
-103.573
-104.176
-104.777
-105.376
-105.974
-106.569
-107.163
-107.755
-108.345
-108.934
-109.520
-110.105
-110.688
-111.269
-111.848
-112.425
-113.001
-113.574
-114.146
-114.716
-115.283
-115.849
-116.413
-116.975
-117.535
-118.093
-118.649
-119.203
-119.755
-120.304
-120.852
-121.398
-121.942
-122.484
-123.024
-123.561
-124.097
-124.630
-125.162
-125.691
-126.218
-126.743
-127.266
-127.787
-128.306
-128.822
-129.337
-129.849
-130.359
-130.867
-131.372
-131.876
-132.377
-132.876
-133.372
-133.867
-134.359
-134.849
-135.337
-135.822
-136.305
-136.786
-137.265
-137.741
-138.215
-138.687
-139.156
-139.623
-140.087
-140.550
-141.009
-141.467
-141.922
-142.375
-142.825
-143.273
-143.719
-144.162
-144.602
-145.041
-145.476
-145.910
-146.341
-146.769
-147.195
-147.619
-148.040
-148.458
-148.874
-149.288
-149.699
-150.107
-150.513
-150.917
-151.318
-151.716
-152.112
-152.505
-152.896
-153.284
-153.670
-154.053
-154.433
-154.811
-155.186
-155.559
-155.929
-156.296
-156.661
-157.023
-157.382
-157.739
-158.093
-158.445
-158.794
-159.140
-159.484
-159.824
-160.162
-160.498
-160.831
-161.161
-161.488
-161.813
-162.135
-162.454
-162.770
-163.084
-163.395
-163.703
-164.008
-164.311
-164.611
-164.908
-165.203
-165.494
-165.783
-166.069
-166.353
-166.633
-166.911
-167.186
-167.458
-167.727
-167.993
-168.257
-168.518
-168.776
-169.031
-169.283
-169.532
-169.779
-170.023
-170.264
-170.502
-170.737
-170.969
-171.198
-171.425
-171.648
-171.869
-172.087
-172.302
-172.514
-172.723
-172.929
-173.133
-173.333
-173.531
-173.725
-173.917
-174.106
-174.292
-174.475
-174.655
-174.832
-175.006
-175.177
-175.345
-175.510
-175.673
-175.832
-175.988
-176.142
-176.292
-176.440
-176.584
-176.726
-176.865
-177.000
-177.133
-177.263
-177.389
-177.513
-177.634
-177.752
-177.867
-177.978
-178.087
-178.193
-178.296
-178.396
-178.492
-178.586
-178.677
-178.765
-178.850
-178.931
-179.010
-179.086
-179.159
-179.228
-179.295
-179.359
-179.420
-179.477
-179.532
-179.584
-179.632
-179.678
-179.721
-179.760
-179.797
-179.830
-179.861
-179.888
-179.913
-179.934
-179.953
-179.968
-179.980
-179.990
-179.996
-179.999
-180.000
-179.997
-179.991
-179.982
-179.971
-378.289
-382.157
-378.587
-366.130
-343.508
-309.702
-264.043
-206.298
-136.744
-56.237
33.741
131.071
233.011
336.274
437.144
531.654
615.813
685.853
738.494
771.189
782.323
771.343
738.801
686.313
616.427
532.422
438.064
337.348
234.239
132.452
35.276
-54.549
-134.903
-204.304
-261.896
-307.401
-341.054
-363.523
-375.827
-379.244
-375.223
-176.752
-176.610
-176.466
-176.319
-176.170
-176.017
-175.861
-175.702
-175.540
-175.375
-175.208
-175.037
-174.864
-174.687
-174.508
-174.325
-174.140
-173.952
-173.760
-173.566
-173.369
-173.169
-172.967
-172.761
-172.552
-172.341
-172.126
-171.909
-171.689
-171.466
-171.240
-171.011
-170.779
-170.545
-170.307
-170.067
-169.824
-169.577
-169.329
-169.077
-146.013
-142.741
-139.156
-135.241
-130.980
-126.354
-121.352
-115.958
-110.165
-103.964
-97.351
-90.325
-82.890
-75.052
-66.824
-58.222
-49.268
-39.988
-30.414
-20.585
-10.541
-0.329
9.997
20.382
30.765
41.084
51.271
61.260
70.979
80.358
89.329
97.821
105.770
113.111
119.785
125.737
130.918
135.284
138.801
141.439
143.178
144.004
143.914
142.912
141.010
138.230
134.599
130.155
124.939
119.001
112.396
105.183
97.426
89.191
80.547
71.563
62.310
52.858
43.274
33.625
23.974
14.382
4.905
-4.406
-13.502
-22.343
-30.890
-39.112
-46.982
-54.478
-61.585
-68.289
-74.584
-80.467
-85.938
-91.002
-95.666
-99.940
-103.837
-107.372
-110.559
-113.417
-115.963
-138.301
-137.827
-137.352
-136.873
-136.393
-135.910
-135.425
-134.938
-134.449
-133.957
-133.463
-132.966
-132.468
-131.967
-131.464
-130.959
-130.451
-129.942
-129.430
-128.916
-128.400
-127.882
-127.361
-126.839
-126.314
-125.787
-125.258
-124.727
-124.194
-123.659
-123.122
-122.582
-122.041
-121.497
-120.952
-120.404
-119.855
-119.303
-118.750
-118.194
-117.636
-117.077
-116.515
-115.952
-115.386
-114.819
-114.250
-113.678
-113.105
-112.530
-111.953
-111.375
-110.794
-110.211
-109.627
-109.041
-108.453
-107.863
-107.271
-106.678
-106.082
-105.485
-104.886
-104.286
-103.683
-103.079
-102.473
-101.866
-101.256
-100.645
-100.033
-99.418
-98.802
-98.185
-97.565
-96.944
-96.322
-95.698
-95.072
-94.444
-93.815
-93.185
-92.552
-91.919
-91.283
-90.647
-90.008
-89.368
-88.727
-88.084
-87.440
-86.794
-86.147
-85.498
-84.848
-84.197
-83.544
-82.889
-82.233
-81.576
-80.918
-80.258
-79.597
-78.934
-78.270
-77.605
-76.938
-76.271
-75.602
-74.931
-74.260
-73.587
-72.913
-72.237
-71.561
-70.883
-70.204
-69.524
-68.843
-68.160
-67.477
-66.792
-66.106
-65.419
-64.731
-64.042
-63.352
-62.660
-61.968
-61.275
-60.580
-59.885
-59.188
-58.491
-57.792
-57.093
-56.393
-55.691
-54.989
-54.286
-53.582
-52.877
-52.171
-51.464
-50.757
-50.048
-49.339
-48.629
-47.918
-47.206
-46.494
-45.780
-45.066
-44.351
-43.636
-42.919
-42.202
-41.485
-40.766
-40.047
-39.327
-38.607
-37.886
-37.164
-36.442
-35.719
-34.995
-34.271
-33.546
-32.821
-32.095
-31.368
-30.641
-29.914
-29.186
-28.458
-27.729
-26.999
-26.269
-25.539
-24.808
-24.077
-23.346
-22.614
-21.881
-21.149
-20.416
-19.682
-18.949
-18.215
-17.480
-16.746
-16.011
-15.275
-14.540
-13.804
-13.068
-12.332
-11.596
-10.859
-10.123
-9.386
-8.649
-7.912
-7.174
-6.437
-5.699
-4.962
-4.224
-3.486
-2.748
-2.010
-1.272
-0.534
0.204
0.942
1.680
2.418
3.155
3.893
4.631
5.369
6.106
6.844
7.581
8.318
9.056
9.793
10.529
11.266
12.002
12.739
13.475
14.210
14.946
15.681
16.416
17.151
17.886
18.620
19.354
20.087
20.820
21.553
22.286
23.018
23.749
24.481
25.212
25.942
26.672
27.402
28.131
28.860
29.588
30.316
31.043
31.769
32.496
33.221
33.946
34.671
35.394
36.118
36.840
37.562
38.284
39.005
39.725
40.444
41.163
41.881
42.598
43.315
44.031
44.746
45.461
46.174
46.887
47.599
48.311
49.021
49.731
50.440
51.147
51.855
52.561
53.266
53.971
54.674
55.377
56.079
56.779
57.479
58.178
58.876
59.573
60.269
60.964
61.657
62.350
63.042
63.733
64.422
65.111
65.798
-131.848
-135.049
-130.816
-117.700
-94.423
-59.966
-13.661
44.726
114.919
196.059
286.667
384.622
487.183
591.063
692.545
787.664
872.427
943.066
996.302
1029.589
1041.309
1030.911
998.947
947.033
877.716
794.275
700.478
600.318
497.760
396.520
299.887
210.600
130.780
61.909
4.841
-40.144
-73.281
-95.239
-107.036
-109.951
-105.431
93.533
94.163
94.791
95.417
96.042
96.666
97.287
97.907
98.526
99.143
99.758
100.371
100.983
101.593
102.201
102.808
103.413
104.016
104.617
105.217
105.815
106.411
107.005
107.598
108.189
108.777
109.365
109.950
110.533
111.115
111.694
112.272
112.848
113.422
113.994
114.564
115.132
115.699
116.263
116.826
140.195
143.769
147.649
151.855
156.404
161.311
166.591
172.256
178.316
184.780
191.650
198.929
206.612
214.693
223.159
231.994
241.177
250.680
260.472
270.515
280.768
291.183
301.708
312.287
322.860
333.363
343.730
353.892
363.781
373.325
382.455
391.103
399.201
406.687
413.501
419.588
424.899
429.391
433.028
435.781
437.630
438.561
438.572
437.665
435.854
433.159
429.609
425.240
420.094
414.222
407.678
400.521
392.815
384.626
376.023
367.075
357.853
348.426
338.863
329.230
319.590
310.004
300.528
291.214
282.108
273.254
264.688
256.443
248.544
241.014
233.869
227.121
220.777
214.841
209.311
204.184
199.451
195.104
191.128
187.511
184.235
181.284
178.640
156.199
156.564
156.927
157.287
157.645
158.000
158.352
158.701
159.048
159.392
159.734
160.073
160.409
160.742
161.073
161.401
161.727
162.049
162.369
162.686
163.001
163.312
163.621
163.928
164.231
164.532
164.830
165.125
165.417
165.707
165.993
166.277
166.559
166.837
167.113
167.386
167.656
167.923
168.187
168.449
168.707
168.963
169.216
169.466
169.714
169.958
170.200
170.438
170.674
170.907
171.138
171.365
171.589
171.811
172.029
172.245
172.458
172.668
172.875
173.079
173.280
173.479
173.674
173.866
174.056
174.243
174.426
174.607
174.785
174.960
175.132
175.301
175.467
175.630
175.790
175.947
176.101
176.253
176.401
176.546
176.689
176.828
176.965
177.098
177.229
177.356
177.481
177.602
177.721
177.836
177.949
178.058
178.165
178.269
178.369
178.467
178.561
178.653
178.742
178.827
178.910
178.990
179.066
179.140
179.210
179.278
179.342
179.404
179.462
179.518
179.570
179.620
179.666
179.710
179.750
179.787
179.822
179.853
179.881
179.907
179.929
179.948
179.964
179.977
179.988
179.995
179.999
180.000
179.998
179.993
179.985
179.974
179.960
179.943
179.923
179.900
179.874
179.844
179.812
179.777
179.739
179.697
179.653
179.606
179.556
179.502
179.446
179.387
179.324
179.259
179.190
179.119
179.044
178.967
178.887
178.803
178.717
178.627
178.535
178.439
178.341
178.239
178.135
178.027
177.917
177.804
177.687
177.568
177.445
177.320
177.192
177.060
176.926
176.789
176.648
176.505
176.359
176.210
176.058
175.902
175.744
175.583
175.419
175.253
175.083
174.910
174.734
174.556
174.374
174.189
174.002
173.812
173.618
173.422
173.223
173.021
172.816
172.608
172.397
172.184
171.967
171.748
171.525
171.300
171.072
170.841
170.607
170.371
170.131
169.888
169.643
169.395
169.144
168.890
168.634
168.374
168.112
167.847
167.579
167.308
167.034
166.758
166.479
166.197
165.912
165.624
165.334
165.041
164.745
164.446
164.144
163.840
163.533
163.224
162.911
162.596
162.278
161.957
161.634
161.308
160.979
160.647
160.313
159.976
159.637
159.294
158.949
158.602
158.251
157.898
157.543
157.184
156.823
156.460
156.094
155.725
155.353
154.979
154.603
154.224
153.842
153.457
153.070
152.681
152.289
151.894
151.497
151.097
150.695
150.290
149.882
149.472
149.060
148.645
148.228
147.808
147.385
146.960
146.533
146.103
145.671
145.236
144.799
144.359
143.917
143.473
-55.307
-59.643
-56.545
-44.566
-22.427
10.890
56.054
113.300
182.350
262.346
351.809
448.617
550.031
652.762
753.095
847.064
930.675
1000.162
1052.245
1084.376
1094.942
1083.387
1050.266
997.194
926.719
842.118
747.161
645.839
542.119
439.717
341.920
251.469
170.484
100.447
42.214
-3.938
-38.243
-61.369
-74.334
-78.418
-75.068
122.726
122.185
121.642
121.097
120.550
120.001
119.450
118.897
118.342
117.785
117.226
116.665
116.102
115.537
114.970
114.401
113.831
113.258
112.683
112.107
111.529
110.949
110.366
109.783
109.197
108.609
108.020
107.429
106.836
106.241
105.644
105.046
104.446
103.844
103.240
102.635
102.028
101.419
100.808
100.196
122.391
124.791
127.498
130.530
133.906
137.640
141.747
146.241
151.130
156.422
162.123
168.231
174.745
181.657
188.954
196.622
204.637
212.974
221.600
230.478
239.566
248.817
258.179
267.596
277.007
286.349
295.555
304.559
313.288
321.675
329.648
337.140
344.083
350.415
356.075
361.010
365.170
368.512
371.000
372.605
373.306
373.092
371.958
369.907
366.953
363.117
358.426
352.918
346.635
339.626
331.947
323.656
314.817
305.496
295.762
285.686
275.336
264.783
254.096
243.339
232.578
221.872
211.277
200.845
190.624
180.655
170.976
161.620
152.611
143.973
135.722
127.869
120.423
113.385
106.756
100.530
94.702
89.260
84.192
79.483
75.119
71.081
67.351
43.826
43.110
42.393
41.676
40.957
40.238
39.519
38.799
38.078
37.356
36.634
35.911
35.187
34.463
33.739
33.014
32.288
31.562
30.835
30.107
29.380
28.651
27.923
27.193
26.464
25.733
25.003
24.272
23.540
22.808
22.076
21.344
20.611
19.877
19.144
18.410
17.676
16.941
16.206
15.471
14.736
14.000
13.264
12.528
11.792
11.055
10.319
9.582
8.845
8.108
7.370
6.633
5.895
5.158
4.420
3.682
2.944
2.206
1.469
0.731
-0.007
-0.745
-1.483
-2.221
-2.959
-3.697
-4.435
-5.173
-5.910
-6.648
-7.385
-8.122
-8.860
-9.597
-10.333
-11.070
-11.807
-12.543
-13.279
-14.015
-14.750
-15.486
-16.221
-16.956
-17.690
-18.424
-19.158
-19.892
-20.625
-21.358
-22.091
-22.823
-23.555
-24.286
-25.017
-25.748
-26.478
-27.208
-27.937
-28.666
-29.394
-30.122
-30.849
-31.576
-32.302
-33.028
-33.753
-34.478
-35.202
-35.925
-36.648
-37.370
-38.092
-38.813
-39.533
-40.253
-40.972
-41.690
-42.408
-43.124
-43.841
-44.556
-45.271
-45.984
-46.698
-47.410
-48.121
-48.832
-49.542
-50.251
-50.959
-51.667
-52.373
-53.079
-53.783
-54.487
-55.190
-55.892
-56.593
-57.293
-57.992
-58.690
-59.388
-60.084
-60.779
-61.473
-62.166
-62.858
-63.549
-64.239
-64.928
-65.616
-66.302
-66.988
-67.672
-68.355
-69.038
-69.719
-70.398
-71.077
-71.754
-72.431
-73.106
-73.779
-74.452
-75.123
-75.793
-76.462
-77.129
-77.795
-78.460
-79.124
-79.786
-80.447
-81.106
-81.764
-82.421
-83.077
-83.730
-84.383
-85.034
-85.684
-86.332
-86.979
-87.624
-88.268
-88.911
-89.552
-90.191
-90.829
-91.465
-92.100
-92.733
-93.365
-93.995
-94.624
-95.251
-95.876
-96.500
-97.122
-97.743
-98.362
-98.979
-99.594
-100.208
-100.820
-101.431
-102.040
-102.647
-103.252
-103.856
-104.458
-105.058
-105.656
-106.253
-106.847
-107.440
-108.032
-108.621
-109.209
-109.794
-110.378
-110.960
-111.540
-112.119
-112.695
-113.269
-113.842
-114.413
-114.981
-115.548
-116.113
-116.676
-117.237
-117.796
-118.353
-118.908
-119.461
-120.012
-120.561
-121.108
-121.653
-122.196
-122.737
-123.276
-123.812
-124.347
-124.879
-125.410
-125.938
-126.464
-126.988
-127.510
-128.030
-128.548
-129.063
-129.577
-130.088
-130.597
-131.104
-131.608
-132.110
-132.611
-133.109
-133.604
-134.098
-134.589
-135.078
-135.564
-136.049
-136.531
-137.010
-137.488
-137.963
-138.436
-138.906
-139.375
-139.840
-140.304
-140.765
-141.224
-141.680
-142.134
-142.586
-143.035
-143.482
-143.926
-144.368
-144.808
-145.245
-145.680
-146.112
-146.542
-146.969
-147.394
-147.816
-148.236
-148.653
-149.068
-149.481
-149.890
-150.298
-150.703
-151.105
-151.505
-151.902
-350.630
-354.908
-351.748
-339.702
-317.491
-284.097
-238.851
-181.518
-112.376
-32.283
57.281
154.196
255.722
358.570
459.024
553.119
636.862
706.485
758.709
790.988
801.704
790.306
757.346
704.440
634.135
549.710
454.934
353.798
250.269
148.061
50.465
-39.781
-120.555
-190.377
-248.391
-294.318
-328.393
-351.284
-364.010
-367.849
-364.251
-166.202
-166.484
-166.763
-167.040
-167.313
-167.584
-167.852
-168.117
-168.379
-168.639
-168.895
-169.149
-169.400
-169.648
-169.893
-170.136
-170.375
-170.612
-170.846
-171.077
-171.305
-171.530
-171.752
-171.971
-172.188
-172.402
-172.612
-172.820
-173.025
-173.227
-173.426
-173.622
-173.815
-174.006
-174.193
-174.378
-174.559
-174.738
-174.913
-175.086
-152.447
-149.599
-146.438
-142.948
-139.110
-134.908
-130.329
-125.359
-119.989
-114.211
-108.021
-101.418
-94.405
-86.990
-79.184
-71.004
-62.472
-53.613
-44.461
-35.053
-25.429
-15.639
-5.733
4.232
14.195
24.095
33.863
43.432
52.732
61.694
70.246
78.321
85.852
92.776
99.033
104.569
109.334
113.285
116.387
118.610
119.934
120.346
119.842
118.427
116.112
112.919
108.877
104.020
98.393
92.045
85.029
77.407
69.240
60.597
51.544
42.152
32.492
22.632
12.642
2.587
-7.469
-17.466
-27.348
-37.062
-46.562
-55.805
-64.754
-73.378
-81.648
-89.545
-97.051
-104.155
-110.849
-117.129
-122.998
-128.459
-133.519
-138.189
-142.480
-146.409
-149.990
-153.240
-156.179
-178.908
-178.826
-178.740
-178.651
-178.560
-178.465
-178.367
-178.267
-178.163
-178.056
-177.947
-177.834
-177.718
-177.600
-177.478
-177.354
-177.226
-177.095
-176.962
-176.825
-176.686
-176.543
-176.398
-176.250
-176.098
-175.944
-175.787
-175.627
-175.463
-175.297
-175.128
-174.956
-174.781
-174.603
-174.423
-174.239
-174.052
-173.863
-173.670
-173.475
-173.276
-173.075
-172.871
-172.664
-172.454
-172.241
-172.025
-171.806
-171.585
-171.360
-171.133
-170.903
-170.670
-170.434
-170.195
-169.953
-169.709
-169.461
-169.211
-168.958
-168.702
-168.443
-168.182
-167.917
-167.650
-167.380
-167.107
-166.832
-166.553
-166.272
-165.988
-165.701
-165.411
-165.119
-164.824
-164.526
-164.225
-163.921
-163.615
-163.306
-162.994
-162.680
-162.363
-162.043
-161.720
-161.395
-161.067
-160.736
-160.402
-160.066
-159.727
-159.386
-159.041
-158.694
-158.345
-157.992
-157.638
-157.280
-156.920
-156.557
-156.191
-155.823
-155.453
-155.079
-154.703
-154.325
-153.944
-153.560
-153.174
-152.785
-152.393
-151.999
-151.603
-151.203
-150.802
-150.398
-149.991
-149.582
-149.170
-148.756
-148.339
-147.920
-147.498
-147.074
-146.647
-146.218
-145.786
-145.352
-144.915
-144.477
-144.035
-143.591
-143.145
-142.696
-142.245
-141.792
-141.336
-140.878
-140.418
-139.955
-139.489
-139.022
-138.552
-138.080
-137.605
-137.128
-136.649
-136.167
-135.684
-135.198
-134.709
-134.219
-133.726
-133.231
-132.733
-132.234
-131.732
-131.228
-130.722
-130.213
-129.703
-129.190
-128.675
-128.158
-127.639
-127.117
-126.594
-126.068
-125.540
-125.010
-124.478
-123.944
-123.408
-122.870
-122.329
-121.787
-121.242
-120.696
-120.147
-119.597
-119.044
-118.490
-117.933
-117.375
-116.814
-116.252
-115.687
-115.121
-114.553
-113.983
-113.411
-112.836
-112.261
-111.683
-111.103
-110.522
-109.938
-109.353
-108.766
-108.177
-107.586
-106.994
-106.399
-105.803
-105.205
-104.605
-104.004
-103.401
-102.796
-102.189
-101.581
-100.971
-100.359
-99.745
-99.130
-98.514
-97.895
-97.275
-96.653
-96.030
-95.405
-94.778
-94.150
-93.520
-92.889
-92.256
-91.622
-90.986
-90.348
-89.709
-89.069
-88.426
-87.783
-87.138
-86.491
-85.844
-85.194
-84.543
-83.891
-83.238
-82.582
-81.926
-81.268
-80.609
-79.949
-79.287
-78.624
-77.959
-77.293
-76.626
-75.958
-75.288
-74.617
-73.945
-73.271
-72.597
-71.921
-71.244
-70.565
-69.886
-69.205
-68.523
-67.840
-67.156
-66.471
-65.785
-65.097
-64.409
-63.719
-63.028
-62.336
-61.644
-60.950
-60.255
-59.559
-58.862
-58.164
-57.465
-56.765
-56.065
-55.363
-54.660
-53.957
-53.252
-52.547
-250.174
-253.353
-249.096
-235.954
-212.649
-178.162
-131.825
-73.404
-3.175
78.003
168.650
266.647
369.252
473.178
574.707
669.876
754.691
825.384
878.675
912.019
923.800
913.463
881.562
829.714
760.464
677.093
583.367
483.281
380.798
279.635
183.081
93.876
14.139
-54.647
-111.628
-156.524
-189.570
-211.435
-223.137
-225.954
-221.336
-22.271
-21.539
-20.806
-20.072
-19.339
-18.605
-17.871
-17.136
-16.402
-15.667
-14.931
-14.196
-13.460
-12.724
-11.988
-11.251
-10.515
-9.778
-9.041
-8.304
-7.566
-6.829
-6.092
-5.354
-4.616
-3.879
-3.141
-2.403
-1.665
-0.927
-0.189
0.549
1.287
2.025
2.763
3.501
4.239
4.976
5.714
6.451
29.998
33.751
37.812
42.201
46.933
52.027
57.494
63.349
69.602
76.259
83.325
90.800
98.683
106.964
115.633
124.673
134.062
143.773
153.775
164.030
174.496
185.126
195.868
206.666
217.460
228.185
238.776
249.164
259.280
269.054
278.415
287.296
295.629
303.351
310.403
316.729
322.282
327.017
330.899
333.899
335.996
337.178
337.441
336.787
335.232
332.794
329.502
325.393
320.510
314.902
308.623
301.733
294.295
286.376
278.045
269.371
260.424
251.274
241.990
232.637
223.279
213.976
204.785
195.758
186.940
178.376
170.102
162.149
154.545
147.311
140.464
134.015
127.972
122.338
117.113
112.291
107.866
103.827
100.161
96.856
93.893
91.257
88.929
66.806
67.490
68.174
68.856
69.538
70.218
70.897
71.574
72.251
72.926
73.600
74.273
74.945
75.615
76.284
76.952
77.618
78.283
78.947
79.610
80.271
80.931
81.589
82.247
82.902
83.557
84.210
84.861
85.511
86.160
86.807
87.453
88.097
88.740
89.381
90.021
90.659
91.296
91.931
92.565
93.197
93.828
94.457
95.084
95.710
96.334
96.957
97.578
98.197
98.815
99.431
100.045
100.658
101.269
101.878
102.485
103.091
103.695
104.298
104.898
105.497
106.094
106.689
107.283
107.875
108.464
109.052
109.639
110.223
110.806
111.386
111.965
112.542
113.117
113.690
114.261
114.830
115.398
115.963
116.527
117.088
117.648
118.205
118.761
119.314
119.866
120.415
120.963
121.508
122.052
122.593
123.132
123.670
124.205
124.738
125.269
125.798
126.325
126.849
127.372
127.892
128.410
128.926
129.440
129.952
130.462
130.969
131.474
131.977
132.478
132.976
133.473
133.967
134.458
134.948
135.435
135.920
136.403
136.883
137.361
137.837
138.310
138.781
139.250
139.717
140.181
140.643
141.102
141.559
142.014
142.466
142.916
143.363
143.808
144.251
144.691
145.129
145.564
145.997
146.427
146.855
147.281
147.704
148.124
148.543
148.958
149.371
149.782
150.190
150.595
150.998
151.399
151.796
152.192
152.585
152.975
153.362
153.747
154.130
154.510
154.887
155.262
155.634
156.003
156.370
156.734
157.096
157.455
157.811
158.165
158.516
158.864
159.210
159.553
159.893
160.230
160.565
160.898
161.227
161.554
161.878
162.199
162.518
162.834
163.147
163.457
163.765
164.070
164.372
164.671
164.968
165.262
165.553
165.841
166.127
166.409
166.689
166.966
167.241
167.512
167.781
168.047
168.310
168.570
168.827
169.082
169.334
169.582
169.828
170.072
170.312
170.549
170.784
171.015
171.244
171.470
171.693
171.913
172.131
172.345
172.557
172.765
172.971
173.174
173.373
173.570
173.764
173.955
174.144
174.329
174.511
174.691
174.867
175.041
175.211
175.379
175.543
175.705
175.864
176.020
176.173
176.322
176.469
176.613
176.754
176.892
177.027
177.159
177.289
177.415
177.538
177.658
177.775
177.889
178.001
178.109
178.214
178.316
178.415
178.512
178.605
178.695
178.782
178.866
178.948
179.026
179.101
179.173
179.242
179.308
179.371
179.432
179.489
179.543
179.594
179.642
179.687
179.729
179.768
179.804
179.837
179.867
179.894
179.917
179.938
179.956
179.971
179.983
179.991
179.997
180.000
179.999
179.996
179.990
179.980
179.968
179.952
179.934
179.912
179.888
179.860
179.830
179.796
179.759
179.720
179.677
-18.702
-22.637
-19.139
-6.761
15.777
49.492
95.054
152.696
222.142
302.533
392.391
489.593
591.401
694.525
795.249
889.609
973.611
1043.487
1095.959
1128.480
1139.433
1128.265
1095.530
1042.843
972.752
888.535
793.961
693.022
589.683
487.661
390.244
300.172
219.566
149.906
92.049
46.273
12.343
-10.409
-23.001
-26.712
-22.991
175.173
175.002
174.828
174.651
174.471
174.288
174.102
173.913
173.722
173.527
173.329
173.129
172.925
172.719
172.510
172.298
172.083
171.865
171.644
171.420
171.194
170.964
170.732
170.497
170.259
170.018
169.774
169.527
169.278
169.026
168.770
168.512
168.252
167.988
167.722
167.452
167.180
166.905
166.627
166.347
188.873
191.602
194.637
197.997
201.698
205.758
210.189
215.005
220.216
225.828
231.848
238.274
245.105
252.332
259.944
267.925
276.252
284.900
293.836
303.022
312.418
321.975
331.641
341.361
351.075
360.718
370.224
379.526
388.553
397.236
405.504
413.288
420.524
427.147
433.097
438.320
442.767
446.394
449.166
451.055
452.038
452.104
451.249
449.476
446.799
443.237
438.821
433.585
427.573
420.834
413.422
405.398
396.825
387.768
378.298
368.483
358.393
348.099
337.668
327.168
316.661
306.208
295.864
285.683
275.710
265.989
256.556
247.444
238.678
230.282
222.271
214.657
207.447
200.645
194.250
188.258
182.660
177.448
172.609
168.127
163.988
160.174
156.666
133.363
132.866
132.367
131.866
131.362
130.857
130.349
129.839
129.326
128.812
128.296
127.777
127.256
126.733
126.208
125.681
125.151
124.620
124.086
123.551
123.013
122.473
121.931
121.387
120.841
120.293
119.744
119.192
118.638
118.082
117.524
116.964
116.402
115.838
115.272
114.704
114.134
113.563
112.989
112.414
111.837
111.257
110.676
110.093
109.509
108.922
108.334
107.743
107.151
106.557
105.962
105.364
104.765
104.164
103.561
102.957
102.351
101.743
101.133
100.522
99.909
99.294
98.678
98.060
97.440
96.819
96.196
95.571
94.945
94.317
93.688
93.057
92.425
91.791
91.155
90.518
89.879
89.239
88.597
87.954
87.310
86.664
86.016
85.367
84.717
84.065
83.412
82.757
82.101
81.443
80.785
80.124
79.463
78.800
78.136
77.470
76.804
76.136
75.466
74.796
74.124
73.451
72.776
72.101
71.424
70.746
70.067
69.386
68.705
68.022
67.338
66.653
65.967
65.280
64.592
63.902
63.212
62.521
61.828
61.134
60.440
59.744
59.048
58.350
57.651
56.952
56.251
55.550
54.847
54.144
53.440
52.734
52.028
51.322
50.614
49.905
49.196
48.485
47.774
47.062
46.350
45.636
44.922
44.207
43.491
42.775
42.058
41.340
40.621
39.902
39.182
38.461
37.740
37.018
36.296
35.572
34.849
34.124
33.400
32.674
31.948
31.222
30.494
29.767
29.039
28.310
27.581
26.852
26.122
25.391
24.661
23.929
23.198
22.466
21.733
21.001
20.268
19.534
18.800
18.066
17.332
16.597
15.862
15.127
14.391
13.656
12.920
12.184
11.447
10.711
9.974
9.237
8.500
7.763
7.025
6.288
5.550
4.813
4.075
3.337
2.599
1.861
1.123
0.385
-0.353
-1.091
-1.829
-2.567
-3.304
-4.042
-4.780
-5.518
-6.255
-6.993
-7.730
-8.467
-9.204
-9.941
-10.678
-11.415
-12.151
-12.887
-13.623
-14.359
-15.095
-15.830
-16.565
-17.299
-18.034
-18.768
-19.502
-20.235
-20.968
-21.701
-22.434
-23.166
-23.897
-24.628
-25.359
-26.090
-26.820
-27.549
-28.278
-29.007
-29.735
-30.462
-31.190
-31.916
-32.642
-33.368
-34.092
-34.817
-35.541
-36.264
-36.986
-37.708
-38.429
-39.150
-39.870
-40.589
-41.308
-42.026
-42.743
-43.460
-44.175
-44.890
-45.605
-46.318
-47.031
-47.743
-48.454
-49.164
-49.874
-50.583
-51.290
-51.997
-52.703
-53.409
-54.113
-54.816
-55.519
-56.220
-56.921
-57.620
-58.319
-59.017
-258.047
-262.628
-259.774
-248.035
-226.132
-193.048
-148.112
-91.092
-22.265
57.512
146.759
243.355
344.561
447.087
547.218
640.988
724.404
793.700
845.595
877.542
887.927
876.195
842.900
789.657
719.014
634.250
539.133
437.655
333.782
231.230
133.287
42.693
-38.430
-108.603
-166.968
-213.249
-247.678
-270.925
-284.009
-288.207
-284.968
-87.281
-87.926
-88.569
-89.211
-89.851
-90.490
-91.127
-91.763
-92.397
-93.029
-93.660
-94.290
-94.917
-95.544
-96.168
-96.791
-97.413
-98.032
-98.651
-99.267
-99.882
-100.495
-101.106
-101.716
-102.324
-102.930
-103.535
-104.138
-104.739
-105.338
-105.936
-106.531
-107.125
-107.717
-108.308
-108.896
-109.483
-110.068
-110.651
-111.232
-89.002
-86.564
-83.816
-80.738
-77.313
-73.527
-69.363
-64.810
-59.858
-54.499
-48.729
-42.547
-35.956
-28.963
-21.581
-13.826
-5.719
2.713
11.437
20.417
29.611
38.971
48.445
57.978
67.509
76.974
86.307
95.441
104.304
112.828
120.942
128.578
135.669
142.152
147.967
153.060
157.382
160.889
163.545
165.322
166.200
166.165
165.213
163.348
160.584
156.941
152.447
147.139
141.059
134.257
126.788
118.711
110.089
100.989
91.480
81.631
71.512
61.194
50.744
40.229
29.712
19.254
8.910
-1.267
-11.230
-20.937
-30.350
-39.439
-48.175
-56.538
-64.511
-72.081
-79.243
-85.992
-92.329
-98.259
-103.789
-108.929
-113.692
-118.091
-122.144
-125.867
-129.278
-152.480
-152.871
-153.259
-153.645
-154.028
-154.409
-154.787
-155.162
-155.535
-155.905
-156.273
-156.638
-157.000
-157.360
-157.717
-158.071
-158.423
-158.772
-159.118
-159.462
-159.803
-160.141
-160.477
-160.809
-161.140
-161.467
-161.792
-162.114
-162.433
-162.750
-163.064
-163.375
-163.683
-163.989
-164.292
-164.592
-164.889
-165.184
-165.476
-165.765
-166.051
-166.335
-166.615
-166.893
-167.168
-167.440
-167.710
-167.976
-168.240
-168.501
-168.759
-169.014
-169.267
-169.517
-169.763
-170.007
-170.248
-170.486
-170.722
-170.954
-171.184
-171.410
-171.634
-171.855
-172.073
-172.288
-172.501
-172.710
-172.916
-173.120
-173.320
-173.518
-173.713
-173.905
-174.094
-174.280
-174.463
-174.643
-174.820
-174.995
-175.166
-175.334
-175.500
-175.662
-175.822
-175.979
-176.132
-176.283
-176.431
-176.575
-176.717
-176.856
-176.992
-177.125
-177.255
-177.381
-177.505
-177.626
-177.744
-177.859
-177.971
-178.080
-178.186
-178.289
-178.389
-178.486
-178.580
-178.671
-178.759
-178.844
-178.926
-179.005
-179.081
-179.154
-179.224
-179.291
-179.355
-179.416
-179.474
-179.529
-179.581
-179.629
-179.675
-179.718
-179.758
-179.795
-179.828
-179.859
-179.887
-179.911
-179.933
-179.952
-179.967
-179.980
-179.989
-179.996
-179.999
-180.000
-179.997
-179.992
-179.983
-179.971
-179.957
-179.939
-179.918
-179.895
-179.868
-179.838
-179.805
-179.769
-179.731
-179.689
-179.644
-179.596
-179.545
-179.491
-179.434
-179.374
-179.311
-179.245
-179.176
-179.104
-179.029
-178.951
-178.870
-178.786
-178.699
-178.609
-178.516
-178.420
-178.321
-178.218
-178.113
-178.005
-177.894
-177.780
-177.663
-177.543
-177.420
-177.294
-177.165
-177.033
-176.898
-176.760
-176.620
-176.476
-176.329
-176.179
-176.026
-175.871
-175.712
-175.551
-175.386
-175.219
-175.048
-174.875
-174.698
-174.519
-174.337
-174.152
-173.964
-173.773
-173.579
-173.382
-173.182
-172.980
-172.774
-172.566
-172.354
-172.140
-171.923
-171.703
-171.480
-171.254
-171.026
-170.794
-170.560
-170.322
-170.082
-169.839
-169.593
-169.345
-169.093
-168.839
-168.581
-168.321
-168.058
-167.793
-167.524
-167.253
-166.979
-166.702
-166.422
-166.139
-165.854
-165.566
-165.275
-164.981
-164.685
-164.385
-164.083
-163.778
-163.471
-163.161
-162.848
-162.532
-162.213
-161.892
-161.568
-161.241
-160.912
-160.580
-160.245
-159.908
-159.568
-159.225
-158.879
-158.531
-158.180
-157.827
-157.471
-157.112
-156.750
-156.386
-156.019
-155.650
-155.278
-154.904
-154.526
-154.147
-153.764
-153.379
-152.992
-152.602
-152.209
-151.814
-151.416
-151.016
-150.613
-150.208
-149.800
-149.389
-148.976
-148.561
-148.143
-147.722
-147.300
-146.874
-146.446
-146.016
-145.583
-145.148
-144.710
-144.270
-143.828
-143.383
-142.935
-142.486
-142.034
-141.579
-141.122
-140.663
-140.201
-139.737
-139.271
-138.802
-336.664
-340.077
-336.052
-323.142
-300.066
-265.807
-219.697
-161.500
-91.495
-10.539
79.888
177.665
280.053
383.762
485.078
580.033
664.636
735.119
788.203
821.340
832.914
822.374
790.271
738.222
668.773
585.204
491.282
391.000
288.324
186.970
90.226
0.832
-79.091
-148.063
-205.227
-250.305
-283.532
-305.576
-317.455
-320.449
-316.005
-117.113
-116.551
-115.988
-115.423
-114.855
-114.286
-113.715
-113.142
-112.567
-111.990
-111.412
-110.831
-110.249
-109.664
-109.078
-108.490
-107.901
-107.309
-106.716
-106.120
-105.523
-104.925
-104.324
-103.722
-103.118
-102.512
-101.905
-101.295
-100.685
-100.072
-99.458
-98.842
-98.224
-97.605
-96.984
-96.362
-95.738
-95.112
-94.484
-93.856
-70.416
-66.769
-62.811
-58.524
-53.891
-48.897
-43.526
-37.766
-31.607
-25.041
-18.065
-10.678
-2.882
5.314
13.900
22.858
32.167
41.801
51.726
61.907
72.300
82.859
93.532
104.262
114.989
125.650
136.179
146.506
156.563
166.279
175.585
184.411
192.692
200.364
207.367
213.647
219.154
223.846
227.686
230.646
232.705
233.850
234.077
233.391
231.804
229.336
226.017
221.882
216.974
211.343
205.043
198.134
190.679
182.745
174.399
165.713
156.756
147.597
138.306
128.947
119.586
110.282
101.090
92.064
83.251
74.691
66.424
58.480
50.886
43.665
36.831
30.398
24.373
18.758
13.553
8.754
4.353
0.340
-3.297
-6.573
-9.504
-12.108
-14.401
-36.488
-35.765
-35.041
-34.317
-33.592
-32.867
-32.141
-31.415
-30.688
-29.961
-29.233
-28.504
-27.775
-27.046
-26.316
-25.586
-24.855
-24.124
-23.392
-22.661
-21.928
-21.196
-20.463
-19.729
-18.996
-18.262
-17.527
-16.793
-16.058
-15.322
-14.587
-13.851
-13.116
-12.379
-11.643
-10.907
-10.170
-9.433
-8.696
-7.959
-7.221
-6.484
-5.746
-5.009
-4.271
-3.533
-2.795
-2.057
-1.319
-0.582
0.156
0.894
1.632
2.370
3.108
3.846
4.584
5.322
6.059
6.797
7.534
8.271
9.008
9.745
10.482
11.219
11.955
12.692
13.428
14.163
14.899
15.634
16.369
17.104
17.839
18.573
19.307
20.040
20.773
21.506
22.239
22.971
23.703
24.434
25.165
25.895
26.626
27.355
28.084
28.813
29.541
30.269
30.996
31.723
32.449
33.175
33.900
34.624
35.348
36.071
36.794
37.516
38.238
38.958
39.679
40.398
41.117
41.835
42.552
43.269
43.985
44.700
45.415
46.129
46.842
47.554
48.265
48.976
49.685
50.394
51.102
51.809
52.516
53.221
53.926
54.629
55.332
56.034
56.735
57.434
58.133
58.831
59.528
60.224
60.919
61.613
62.306
62.998
63.689
64.378
65.067
65.754
66.441
67.126
67.810
68.493
69.175
69.856
70.536
71.214
71.891
72.567
73.242
73.915
74.587
75.258
75.928
76.597
77.264
77.930
78.594
79.258
79.920
80.580
81.239
81.897
82.554
83.209
83.862
84.515
85.166
85.815
86.463
87.110
87.755
88.398
89.040
89.681
90.320
90.958
91.594
92.228
92.861
93.493
94.122
94.751
95.377
96.002
96.626
97.248
97.868
98.486
99.103
99.718
100.332
100.944
101.554
102.162
102.769
103.374
103.977
104.579
105.179
105.777
106.373
106.967
107.560
108.151
108.740
109.327
109.912
110.496
111.078
111.657
112.235
112.811
113.385
113.957
114.528
115.096
115.663
116.227
116.790
117.350
117.909
118.465
119.020
119.573
120.123
120.672
121.218
121.763
122.305
122.846
123.384
123.920
124.455
124.987
125.517
126.045
126.570
127.094
127.616
128.135
128.652
129.167
129.680
130.191
130.699
131.206
131.710
132.212
132.711
133.209
133.704
134.197
134.688
135.176
135.662
136.146
136.628
137.107
137.584
138.059
138.531
139.001
139.469
139.934
140.397
140.858
141.316
141.772
142.226
142.677
143.125
143.572
144.016
144.457
144.896
145.333
145.767
146.199
146.628
147.055
147.479
-50.432
-53.899
-49.933
-37.086
-14.078
20.107
66.139
124.253
194.170
275.034
365.364
463.039
565.320
668.918
770.117
864.951
949.428
1019.781
1072.728
1105.725
1117.155
1106.464
1074.207
1021.998
952.385
868.647
774.551
674.091
571.232
469.689
372.753
283.161
203.036
133.857
76.481
31.186
-2.262
-24.532
-36.642
-39.871
-35.667
162.981
163.293
163.602
163.908
164.212
164.512
164.811
165.106
165.398
165.688
165.975
166.259
166.541
166.819
167.095
167.368
167.638
167.906
168.170
168.432
168.691
168.947
169.200
169.450
169.698
169.943
170.184
170.423
170.659
170.893
171.123
171.350
171.575
171.797
172.015
172.231
172.444
172.654
172.862
173.066
196.076
199.290
202.810
206.654
210.840
215.383
220.298
225.598
231.292
237.388
243.891
250.800
258.114
265.823
273.918
282.381
291.190
300.319
309.736
319.404
329.280
339.317
349.464
359.664
369.857
379.979
389.965
399.745
409.250
418.411
427.156
435.419
443.131
450.230
456.656
462.355
467.277
471.379
474.626
476.988
478.445
478.985
478.602
477.301
475.096
472.006
468.060
463.294
457.752
451.482
444.540
436.984
428.878
420.289
411.285
401.936
392.312
382.482
372.516
362.479
352.436
342.445
332.563
322.843
313.331
304.070
295.097
286.444
278.136
270.197
262.643
255.485
248.731
242.384
236.443
230.904
225.759
220.999
216.610
212.579
208.890
205.524
202.465
179.609
179.559
179.506
179.450
179.390
179.328
179.263
179.195
179.124
179.049
178.972
178.892
178.809
178.722
178.633
178.541
178.445
178.347
178.246
178.142
178.034
177.924
177.811
177.695
177.575
177.453
177.328
177.200
177.069
176.935
176.797
176.657
176.514
176.368
176.219
176.067
175.912
175.755
175.594
175.430
175.263
175.094
174.921
174.746
174.567
174.386
174.201
174.014
173.824
173.631
173.435
173.236
173.034
172.829
172.621
172.411
172.197
171.981
171.762
171.540
171.315
171.087
170.856
170.622
170.386
170.146
169.904
169.659
169.411
169.160
168.907
168.650
168.391
168.129
167.864
167.596
167.325
167.052
166.776
166.497
166.215
165.930
165.643
165.352
165.059
164.764
164.465
164.164
163.860
163.553
163.243
162.931
162.616
162.298
161.978
161.655
161.329
161.000
160.669
160.335
159.998
159.658
159.316
158.971
158.624
158.274
157.921
157.566
157.207
156.847
156.483
156.117
155.749
155.377
155.003
154.627
154.248
153.866
153.482
153.095
152.706
152.314
151.919
151.522
151.123
150.720
150.316
149.908
149.499
149.086
148.672
148.254
147.835
147.412
146.988
146.560
146.131
145.699
145.264
144.827
144.388
143.946
143.501
143.055
142.606
142.154
141.700
141.244
140.785
140.324
139.861
139.395
138.927
138.457
137.984
137.509
137.032
136.552
136.070
135.586
135.099
134.610
134.119
133.626
133.130
132.633
132.133
131.630
131.126
130.619
130.110
129.599
129.086
128.571
128.053
127.533
127.012
126.488
125.961
125.433
124.903
124.370
123.836
123.299
122.761
122.220
121.677
121.132
120.585
120.036
119.485
118.932
118.378
117.821
117.262
116.701
116.138
115.573
115.006
114.438
113.867
113.295
112.720
112.144
111.566
110.986
110.404
109.820
109.234
108.647
108.058
107.467
106.874
106.279
105.682
105.084
104.484
103.882
103.279
102.673
102.066
101.458
100.847
100.235
99.621
99.006
98.389
97.770
97.149
96.527
95.904
95.278
94.651
94.023
93.393
92.761
92.128
91.493
90.857
90.219
89.580
88.939
88.297
87.653
87.007
86.361
85.712
85.063
84.412
83.759
83.105
82.450
81.793
81.135
80.476
79.815
79.153
78.489
77.825
77.159
76.491
75.823
75.153
74.481
73.809
73.135
72.460
71.784
71.107
70.428
69.748
69.068
68.386
67.702
67.018
66.332
65.646
64.958
64.269
63.580
62.889
62.197
61.504
60.809
60.114
59.418
58.721
58.023
57.324
56.624
55.923
55.221
54.518
53.814
53.110
52.404
51.698
50.990
50.282
49.573
48.863
48.153
47.441
46.729
46.016
45.302
-153.746
-158.347
-155.514
-143.798
-121.920
-88.863
-43.956
13.034
81.829
161.573
250.784
347.343
448.510
550.995
651.084
744.810
828.181
897.428
949.274
981.170
991.502
979.715
946.364
893.063
822.360
737.535
642.354
540.811
436.871
334.250
236.237
145.572
64.375
-5.873
-64.316
-110.675
-145.185
-168.515
-181.682
-185.966
-182.815
14.783
14.047
13.311
12.575
11.839
11.102
10.366
9.629
8.892
8.155
7.418
6.680
5.943
5.205
4.467
3.729
2.992
2.254
1.516
0.778
0.040
-0.698
-1.436
-2.174
-2.912
-3.650
-4.388
-5.125
-5.863
-6.600
-7.338
-8.075
-8.812
-9.549
-10.286
-11.023
-11.759
-12.496
-13.232
-13.968
8.106
10.386
12.975
15.891
19.153
22.775
26.772
31.157
35.940
41.128
46.726
52.734
59.149
65.964
73.168
80.742
88.667
96.915
105.454
114.247
123.252
132.422
141.705
151.045
160.381
169.649
178.785
187.719
196.382
204.703
212.613
220.043
226.927
233.201
238.806
243.687
247.796
251.088
253.528
255.088
255.746
255.490
254.316
252.227
249.238
245.368
240.646
235.108
228.797
221.762
214.059
205.746
196.887
187.548
177.799
167.708
157.347
146.784
136.088
125.326
114.561
103.852
93.257
82.827
72.610
62.647
52.977
43.630
34.633
26.009
17.774
9.939
2.512
-4.504
-11.110
-17.309
-23.110
-28.523
-33.559
-38.233
-42.562
-46.563
-50.253
-73.736
-74.409
-75.080
-75.750
-76.419
-77.087
-77.753
-78.418
-79.081
-79.744
-80.405
-81.064
-81.722
-82.379
-83.035
-83.689
-84.341
-84.993
-85.642
-86.291
-86.938
-87.583
-88.227
-88.870
-89.511
-90.150
-90.788
-91.425
-92.060
-92.693
-93.325
-93.955
-94.584
-95.211
-95.836
-96.460
-97.082
-97.703
-98.322
-98.939
-99.555
-100.169
-100.781
-101.392
-102.001
-102.608
-103.213
-103.817
-104.419
-105.019
-105.618
-106.215
-106.809
-107.403
-107.994
-108.583
-109.171
-109.757
-110.341
-110.923
-111.503
-112.082
-112.658
-113.233
-113.805
-114.376
-114.945
-115.512
-116.077
-116.640
-117.201
-117.760
-118.317
-118.873
-119.426
-119.977
-120.526
-121.073
-121.618
-122.161
-122.702
-123.241
-123.778
-124.313
-124.845
-125.376
-125.904
-126.431
-126.955
-127.477
-127.997
-128.515
-129.030
-129.544
-130.055
-130.564
-131.071
-131.576
-132.078
-132.579
-133.077
-133.573
-134.066
-134.557
-135.046
-135.533
-136.018
-136.500
-136.980
-137.457
-137.933
-138.406
-138.876
-139.345
-139.811
-140.274
-140.736
-141.194
-141.651
-142.105
-142.557
-143.006
-143.453
-143.898
-144.340
-144.780
-145.217
-145.652
-146.084
-146.514
-146.942
-147.367
-147.789
-148.209
-148.627
-149.042
-149.454
-149.864
-150.272
-150.677
-151.079
-151.479
-151.876
-152.271
-152.664
-153.053
-153.440
-153.825
-154.207
-154.586
-154.963
-155.337
-155.709
-156.078
-156.444
-156.808
-157.169
-157.527
-157.883
-158.236
-158.586
-158.934
-159.279
-159.622
-159.961
-160.298
-160.633
-160.964
-161.293
-161.619
-161.943
-162.264
-162.582
-162.897
-163.210
-163.520
-163.827
-164.131
-164.433
-164.732
-165.028
-165.321
-165.611
-165.899
-166.184
-166.466
-166.746
-167.022
-167.296
-167.567
-167.835
-168.100
-168.363
-168.622
-168.879
-169.133
-169.384
-169.632
-169.878
-170.120
-170.360
-170.597
-170.831
-171.062
-171.290
-171.515
-171.738
-171.958
-172.174
-172.388
-172.599
-172.807
-173.012
-173.214
-173.413
-173.610
-173.803
-173.994
-174.181
-174.366
-174.548
-174.726
-174.902
-175.075
-175.245
-175.412
-175.576
-175.737
-175.896
-176.051
-176.203
