Name,Demo Athlete
Date of Birth,1990-01-01
Recorded Date,2026-08-09 07:20:11 -0700
Classification,Atrial Fibrillation
Symptoms,
Software Version,2.1
Device,"Watch7,2"
Sample Rate,510.844 hertz


Lead,Lead I
Unit,µV

0.000
0.738
1.476
2.214
2.952
3.690
4.427
5.165
5.903
6.640
7.378
8.115
8.852
9.589
10.326
11.063
11.799
12.535
13.272
14.007
14.743
15.478
16.213
16.948
17.683
18.417
19.151
19.885
20.618
21.351
22.084
22.816
23.548
24.279
25.010
25.741
26.471
27.201
27.930
28.659
29.387
30.115
30.842
31.569
32.295
33.021
33.746
34.471
35.195
35.918
36.641
37.363
38.085
38.806
39.526
40.246
40.965
41.683
42.400
43.117
43.833
44.549
45.263
45.977
46.690
47.403
48.114
48.825
49.535
50.244
50.952
51.660
52.366
53.072
53.776
54.480
55.183
55.885
56.586
57.286
57.985
58.683
59.381
60.077
60.772
61.466
62.159
62.851
63.542
64.232
64.921
65.609
66.295
66.981
67.665
68.349
69.031
69.712
70.392
71.070
71.748
72.424
73.099
73.773
74.445
75.116
75.786
76.455
77.123
77.789
78.454
79.117
79.779
80.440
81.100
81.758
82.415
83.070
83.724
84.377
85.028
85.677
86.326
86.973
87.618
88.262
88.904
89.545
90.185
90.823
91.459
92.094
92.727
93.359
93.989
94.618
95.245
95.870
96.494
97.116
97.736
98.355
98.973
99.588
100.202
100.814
101.425
102.034
102.641
103.246
103.850
104.452
105.052
105.650
106.247
106.842
107.435
108.026
108.615
109.203
109.788
110.372
110.954
111.535
112.113
112.689
113.264
113.836
114.407
114.976
115.543
116.108
116.670
117.231
117.790
118.348
118.903
119.456
120.007
120.556
121.103
121.648
122.191
122.731
123.270
123.807
124.342
124.874
125.405
125.933
126.459
126.983
127.505
128.025
128.543
129.058
129.572
130.083
130.592
131.099
131.603
132.105
132.606
133.104
133.599
134.093
134.584
135.073
135.559
136.044
136.526
137.006
137.483
137.958
138.431
138.902
139.370
139.836
140.299
140.760
141.219
141.676
142.130
142.581
143.031
143.477
143.922
144.364
144.803
145.240
145.675
146.107
146.537
146.965
147.389
-50.521
-53.988
-50.021
-37.173
-14.166
20.020
66.053
124.168
194.085
274.949
365.280
462.956
565.238
668.836
770.035
864.870
949.348
1019.700
1072.649
1105.646
1117.076
1106.386
1074.129
1021.921
952.308
868.571
774.476
674.016
571.158
469.616
372.680
283.089
202.964
133.786
76.410
31.116
-2.331
-24.600
-36.710
-39.938
-35.734
162.914
163.227
163.536
163.843
164.147
164.449
164.748
165.044
165.337
165.627
165.915
166.199
166.481
166.761
167.037
167.311
167.581
167.849
168.114
168.377
168.636
168.893
169.147
169.398
169.646
169.891
170.133
170.373
170.610
170.843
171.074
171.302
171.528
171.750
171.969
172.186
172.399
172.610
172.818
173.023
196.034
199.248
202.769
206.614
210.800
215.344
220.260
225.560
231.255
237.352
243.855
250.765
258.079
265.789
273.884
282.348
291.157
300.287
309.705
319.373
329.250
339.288
349.435
359.636
369.829
379.952
389.938
399.719
409.225
418.387
427.133
435.396
443.108
450.208
456.635
462.335
467.257
471.360
474.607
476.970
478.428
478.968
478.586
477.286
475.081
471.992
468.046
463.281
457.740
451.471
444.529
436.973
428.868
420.280
411.276
401.928
392.304
382.476
372.510
362.474
352.431
342.441
332.560
322.841
313.330
304.069
295.096
286.444
278.137
270.199
262.645
255.488
248.734
242.388
236.447
230.909
225.765
221.005
216.617
212.587
208.898
205.533
202.475
179.619
179.570
179.517
179.462
179.403
179.342
179.277
179.210
179.139
179.065
178.989
178.909
178.826
178.741
178.652
178.561
178.466
178.368
178.268
178.164
178.057
177.948
177.835
177.720
177.601
177.479
177.355
177.227
177.097
176.963
176.827
176.687
176.545
176.400
176.251
176.100
175.946
175.788
175.628
175.465
175.299
175.130
174.958
174.783
174.605
174.424
174.241
174.054
173.864
173.672
173.477
173.278
173.077
172.873
172.666
172.456
172.243
172.027
171.809
171.587
171.363
171.135
170.905
170.672
170.436
170.197
169.956
169.711
169.464
169.214
168.961
168.705
168.446
168.184
167.920
167.653
167.383
167.110
166.834
166.556
166.275
165.991
165.704
165.414
165.122
164.827
164.529
164.228
163.924
163.618
163.309
162.998
162.683
162.366
162.046
161.723
161.398
161.070
160.739
160.406
160.069
159.731
159.389
159.045
158.698
158.348
157.996
157.641
157.284
156.923
156.561
156.195
155.827
155.456
155.083
154.707
154.329
153.947
153.564
153.177
152.789
152.397
152.003
151.607
151.207
150.806
150.402
149.995
149.586
149.174
148.760
148.343
147.924
147.502
147.078
146.651
146.222
145.790
145.356
144.920
144.481
144.040
143.596
143.150
142.701
142.250
141.797
141.341
140.883
140.422
139.959
139.494
139.026
138.557
138.084
137.610
137.133
136.654
136.172
135.688
135.202
134.714
134.224
133.731
133.236
132.738
132.239
131.737
131.233
130.727
130.218
129.708
129.195
128.680
128.163
127.644
127.122
126.599
126.073
125.545
125.015
124.483
123.949
123.413
122.875
122.335
121.792
121.248
120.701
120.153
119.602
119.050
118.495
117.939
117.380
116.820
116.257
115.693
115.127
114.559
113.988
113.416
112.842
112.266
111.689
111.109
110.527
109.944
109.359
108.772
108.183
107.592
106.999
106.405
105.809
105.211
104.611
104.010
103.407
102.802
102.195
101.587
100.977
100.365
99.752
99.136
98.520
97.901
97.281
96.659
96.036
95.411
94.785
94.156
93.527
92.895
92.262
91.628
90.992
90.354
89.715
89.075
-109.900
-114.430
-111.526
-99.739
-77.792
-44.665
0.310
57.367
126.229
206.038
295.315
391.938
493.169
595.717
695.867
789.655
873.086
942.394
994.298
1026.253
1036.642
1024.912
991.617
938.372
867.724
782.952
687.824
586.334
482.446
379.875
281.912
191.296
110.148
39.947
-18.449
-64.762
-99.227
-122.512
-135.635
-139.876
-136.683
60.957
60.262
59.566
58.869
58.171
57.472
56.772
56.072
55.370
54.667
53.964
53.259
52.554
51.848
51.140
50.432
49.724
49.014
48.303
47.592
46.880
46.167
45.453
44.739
44.024
43.308
42.591
41.874
41.156
40.437
39.717
38.997
38.277
37.555
36.833
36.110
35.387
34.663
33.939
33.214
55.297
57.586
60.184
63.108
66.377
70.005
74.007
78.397
83.184
88.375
93.975
99.984
106.400
113.214
120.417
127.989
135.911
144.156
152.691
161.479
170.478
179.642
188.917
198.248
207.575
216.834
225.959
234.882
243.532
251.840
259.737
267.152
274.021
280.279
285.867
290.731
294.820
298.093
300.514
302.052
302.689
302.410
301.213
299.101
296.086
292.190
287.442
281.877
275.538
268.474
260.741
252.398
243.508
234.138
224.356
214.232
203.836
193.238
182.507
171.708
160.905
150.158
139.524
129.055
118.797
108.793
99.080
89.691
80.651
71.982
63.701
55.821
48.347
41.284
34.630
28.381
22.531
17.068
11.980
7.254
2.872
-1.182
-4.927
-28.465
-29.193
-29.921
-30.649
-31.376
-32.102
-32.828
-33.553
-34.278
-35.002
-35.726
-36.449
-37.171
-37.893
-38.614
-39.334
-40.054
-40.773
-41.492
-42.210
-42.927
-43.643
-44.359
-45.073
-45.787
-46.501
-47.213
-47.925
-48.636
-49.346
-50.055
-50.764
-51.471
-52.178
-52.884
-53.589
-54.293
-54.996
-55.698
-56.400
-57.100
-57.799
-58.498
-59.195
-59.892
-60.587
-61.282
-61.975
-62.667
-63.359
-64.049
-64.738
-65.426
-66.113
-66.799
-67.483
-68.167
-68.849
-69.531
-70.211
-70.890
-71.567
-72.244
-72.919
-73.593
-74.266
-74.938
-75.608
-76.277
-76.945
-77.612
-78.277
-78.941
-79.603
-80.264
-80.924
-81.583
-82.240
-82.896
-83.550
-84.203
-84.855
-85.505
-86.153
-86.801
-87.446
-88.091
-88.734
-89.375
-90.015
-90.653
-91.290
-91.925
-92.559
-93.191
-93.822
-94.451
-95.078
-95.704
-96.328
-96.951
-97.572
-98.191
-98.809
-99.425
-100.039
-100.652
-101.263
-101.872
-102.479
-103.085
-103.689
-104.292
-104.892
-105.491
-106.088
-106.683
-107.277
-107.869
-108.459
-109.047
-109.633
-110.217
-110.800
-111.380
-111.959
-112.536
-113.111
-113.684
-114.255
-114.825
-115.392
-115.957
-116.521
-117.082
-117.642
-118.200
-118.755
-119.309
-119.860
-120.410
-120.957
-121.503
-122.046
-122.588
-123.127
-123.664
-124.200
-124.733
-125.264
-125.793
-126.319
-126.844
-127.367
-127.887
-128.405
-128.921
-129.435
-129.947
-130.457
-130.964
-131.469
-131.972
-132.473
-132.971
-133.468
-133.962
-134.453
-134.943
-135.430
-135.915
-136.398
-136.878
-137.356
-137.832
-138.306
-138.777
-139.246
-139.712
-140.176
-140.638
-141.097
-141.554
-142.009
-142.461
-142.911
-143.359
-143.804
-144.246
-144.687
-145.124
-145.560
-145.993
-146.423
-146.851
-147.277
-147.700
-148.120
-148.538
-148.954
-149.367
-149.778
-150.186
-150.591
-150.994
-151.395
-151.792
-152.188
-152.581
-152.971
-153.358
-153.744
-154.126
-154.506
-154.883
-155.258
-155.630
-156.000
-156.366
-156.731
-157.092
-157.451
-157.808
-158.161
-158.512
-158.861
-159.206
-159.549
-159.889
-160.227
-160.562
-160.894
-161.224
-161.551
-161.875
-162.196
-162.515
-162.831
-163.144
-163.454
-163.762
-164.067
-164.369
-164.668
-164.965
-165.259
-165.550
-165.838
-166.124
-166.407
-166.687
-166.964
-167.238
-167.510
-167.778
-168.044
-168.307
-168.567
-168.825
-169.079
-169.331
-169.580
-169.826
-170.069
-170.309
-170.547
-170.781
-171.013
-171.242
-171.468
-171.691
-171.911
-172.129
-172.343
-172.554
-172.763
-172.969
-173.172
-173.371
-173.568
-173.762
-173.954
-174.142
-174.327
-174.509
-174.689
-174.865
-175.039
-175.209
-175.377
-175.542
-175.704
-175.862
-176.018
-176.171
-176.321
-176.468
-176.612
-176.753
-176.891
-177.026
-177.158
-177.287
-177.413
-177.537
-177.657
-177.774
-177.888
-177.999
-178.108
-178.213
-178.315
-178.414
-178.511
-178.604
-178.694
-178.781
-178.866
-178.947
-179.025
-179.100
-179.172
-179.242
-179.308
-179.371
-179.431
-179.488
-179.542
-179.593
-179.641
-179.686
-179.728
-179.767
-179.803
-179.836
-179.866
-179.893
-179.917
-179.938
-179.956
-179.971
-179.983
-179.991
-179.997
-180.000
-179.999
-179.996
-179.990
-179.980
-378.301
-382.172
-378.604
-366.150
-343.530
-309.727
-264.070
-206.327
-136.775
-56.271
33.705
131.031
232.970
336.230
437.097
531.606
615.762
685.799
738.438
771.131
782.262
771.279
738.735
686.245
616.357
532.349
437.989
337.270
234.158
132.369
35.190
-54.637
-134.993
-204.396
-261.991
-307.499
-341.154
-363.626
-375.932
-379.351
-375.332
-176.863
-176.725
-176.583
-176.438
-176.291
-176.140
-175.987
-175.830
-175.671
-175.509
-175.343
-175.175
-175.004
-174.830
-174.653
-174.473
-174.290
-174.104
-173.915
-173.723
-173.529
-173.331
-173.131
-172.927
-172.721
-172.512
-172.300
-172.085
-171.867
-171.646
-171.423
-171.196
-170.967
-170.734
-170.499
-170.261
-170.020
-169.777
-169.530
-169.280
-146.219
-142.949
-139.367
-135.454
-131.195
-126.572
-121.571
-116.180
-110.389
-104.190
-97.580
-90.556
-83.123
-75.288
-67.062
-58.462
-49.510
-40.232
-30.661
-20.833
-10.792
-0.583
9.741
20.124
30.505
40.822
51.007
60.993
70.710
80.087
89.056
97.546
105.492
112.831
119.503
125.453
130.632
134.996
138.511
141.147
142.883
143.707
143.615
142.611
140.707
137.925
134.292
129.845
124.627
118.687
112.080
104.866
97.107
88.870
80.223
71.238
61.983
52.528
42.942
33.291
23.638
14.044
4.565
-4.748
-13.847
-22.689
-31.238
-39.462
-47.334
-54.832
-61.941
-68.647
-74.944
-80.829
-86.302
-91.368
-96.034
-100.310
-104.209
-107.745
-110.934
-113.794
-116.342
-138.682
-138.210
-137.736
-137.260
-136.781
-136.301
-135.817
-135.332
-134.844
-134.354
-133.862
-133.368
-132.871
-132.372
-131.871
-131.367
-130.862
-130.354
-129.844
-129.332
-128.817
-128.301
-127.782
-127.261
-126.738
-126.213
-125.686
-125.157
-124.625
-124.092
-123.556
-123.018
-122.479
-121.937
-121.393
-120.847
-120.299
-119.749
-119.197
-118.643
-118.087
-117.529
-116.969
-116.407
-115.843
-115.278
-114.710
-114.140
-113.569
-112.995
-112.420
-111.842
-111.263
-110.682
-110.099
-109.515
-108.928
-108.340
-107.749
-107.157
-106.563
-105.968
-105.370
-104.771
-104.170
-103.567
-102.963
-102.357
-101.749
-101.139
-100.528
-99.915
-99.300
-98.684
-98.066
-97.446
-96.825
-96.202
-95.577
-94.951
-94.324
-93.694
-93.063
-92.431
-91.797
-91.161
-90.524
-89.886
-89.245
-88.604
-87.961
-87.316
-86.670
-86.023
-85.374
-84.723
-84.071
-83.418
-82.763
-82.107
-81.450
-80.791
-80.131
-79.470
-78.807
-78.143
-77.477
-76.810
-76.142
-75.473
-74.802
-74.130
-73.457
-72.783
-72.107
-71.431
-70.753
-70.074
-69.393
-68.712
-68.029
-67.345
-66.660
-65.974
-65.287
-64.599
-63.909
-63.219
-62.527
-61.835
-61.141
-60.447
-59.751
-59.054
-58.357
-57.658
-56.959
-56.258
-55.557
-54.854
-54.151
-53.447
-52.742
-52.036
-51.329
-50.621
-49.912
-49.203
-48.492
-47.781
-47.069
-46.357
-45.643
-44.929
-44.214
-43.498
-42.782
-42.065
-41.347
-40.628
-39.909
-39.189
-38.468
-37.747
-37.025
-36.303
-35.580
-34.856
-34.132
-33.407
-32.681
-31.955
-31.229
-30.502
-29.774
-29.046
-226.651
-229.808
-225.529
-212.367
-189.041
-154.534
-108.177
-49.736
20.511
101.708
192.374
290.389
393.011
496.954
598.500
693.686
778.516
849.224
902.531
935.890
947.685
937.362
905.475
853.639
784.403
701.044
607.330
507.254
404.783
303.631
207.087
117.891
38.165
-30.613
-87.585
-132.472
-165.511
-187.368
-199.063
-201.874
-197.250
1.821
2.559
3.297
4.035
4.773
5.510
6.248
6.985
7.723
8.460
9.197
9.934
10.671
11.407
12.144
12.880
13.616
14.352
15.087
15.822
16.557
17.292
18.027
18.761
19.494
20.228
20.961
21.694
22.426
23.158
23.890
24.621
25.352
26.082
26.812
27.542
28.271
29.000
29.728
30.455
53.991
57.733
61.783
66.160
70.881
75.962
81.417
87.259
93.498
100.141
107.192
114.653
122.520
130.786
139.439
148.462
157.834
167.528
177.513
187.750
198.198
208.809
219.532
230.310
241.084
251.789
262.359
272.726
282.821
292.572
301.911
310.769
319.078
326.777
333.805
340.108
345.635
350.346
354.202
357.176
359.247
360.402
360.637
359.957
358.373
355.907
352.587
348.449
343.536
337.898
331.589
324.668
317.200
309.250
300.887
292.181
283.201
274.019
264.701
255.314
245.922
236.585
227.360
218.297
209.444
200.844
192.533
184.544
176.902
169.631
162.746
156.259
150.178
144.505
139.240
134.379
129.913
125.834
122.128
118.781
115.777
113.099
110.729
88.563
89.204
89.845
90.483
91.121
91.756
92.390
93.023
93.654
94.283
94.911
95.537
96.162
96.785
97.407
98.026
98.644
99.261
99.876
100.489
101.100
101.710
102.318
102.924
103.529
104.132
104.733
105.332
105.930
106.525
107.119
107.711
108.302
108.890
109.477
110.062
110.645
111.226
111.805
112.383
112.958
113.532
114.104
114.673
115.241
115.807
116.371
116.933
117.493
118.051
118.608
119.162
119.714
120.264
120.812
121.358
121.902
122.444
122.984
123.522
124.057
124.591
125.123
125.652
126.179
126.705
127.228
127.749
128.268
128.784
129.299
129.811
130.321
130.829
131.335
131.838
132.340
132.839
133.336
133.830
134.323
134.813
135.301
135.786
136.270
136.751
137.229
137.706
138.180
138.652
139.121
139.588
140.053
140.515
140.975
141.433
141.888
142.341
142.792
143.240
143.686
144.129
144.570
145.008
145.444
145.878
146.309
146.738
147.164
147.587
148.009
148.427
148.844
149.257
149.669
150.077
150.483
150.887
151.288
151.687
152.083
152.476
152.867
153.256
153.641
154.025
154.405
154.783
155.159
155.531
155.902
156.269
156.634
156.996
157.356
157.713
158.067
158.419
158.768
159.114
159.458
159.799
160.138
160.473
160.806
161.136
161.464
161.789
162.111
162.430
162.747
163.061
163.372
163.680
163.986
164.289
164.589
164.886
165.181
165.473
165.762
166.048
166.332
166.612
166.890
167.165
167.438
167.707
167.974
168.237
168.498
168.757
169.012
169.264
169.514
169.761
170.005
170.246
170.484
170.719
170.952
171.181
171.408
171.632
171.853
172.071
172.286
172.498
172.708
172.914
173.118
173.319
173.516
173.711
173.903
174.092
174.278
174.461
174.641
174.819
174.993
175.164
175.333
175.498
175.661
175.820
175.977
176.131
176.281
176.429
176.574
176.716
176.855
176.990
177.123
177.253
177.380
177.504
177.625
177.743
177.858
177.970
178.079
178.185
178.288
178.388
178.485
178.579
178.670
178.758
178.843
178.925
179.004
179.080
179.153
179.223
179.290
179.354
179.415
179.473
179.528
179.580
179.629
179.675
179.718
179.757
179.794
179.828
179.859
179.886
179.911
179.933
179.951
179.967
179.980
179.989
179.996
179.999
180.000
179.997
179.992
179.983
179.972
179.957
179.939
179.919
179.895
179.868
179.838
179.806
179.770
179.731
179.689
179.644
179.596
179.546
179.492
179.435
179.375
179.312
179.246
179.177
179.105
179.030
178.952
178.871
178.787
178.700
178.610
178.517
178.421
178.322
178.220
178.114
178.006
177.895
177.781
177.664
177.544
177.421
177.295
177.167
177.035
176.900
176.762
176.621
176.477
176.330
176.181
176.028
175.872
175.714
175.552
175.388
175.220
175.050
174.876
174.700
174.521
174.339
174.154
173.966
173.775
173.581
173.384
-25.149
-29.237
-25.894
-13.670
8.715
42.276
87.685
145.174
214.467
294.705
384.410
481.460
583.115
686.086
786.659
880.866
964.716
1034.441
1086.761
1119.130
1129.932
1118.613
1085.727
1032.889
962.647
878.280
783.555
682.466
578.978
476.805
379.239
289.017
208.262
138.453
80.447
34.522
0.444
-22.456
-35.196
-39.056
-35.482
162.535
162.217
161.895
161.571
161.245
160.915
160.583
160.249
159.911
159.571
159.228
158.883
158.535
158.184
157.830
157.474
157.115
156.754
156.390
156.023
155.654
155.282
154.907
154.530
154.150
153.768
153.383
152.996
152.606
152.213
151.818
151.420
151.020
150.617
150.212
149.804
149.393
148.980
148.565
148.147
170.536
173.128
176.027
179.251
182.816
186.740
191.036
195.717
200.793
206.272
212.157
218.450
225.148
232.242
239.722
247.570
255.766
264.282
273.086
282.142
291.407
300.834
310.371
319.961
329.546
339.060
348.438
357.612
366.511
375.067
383.208
390.866
397.976
404.473
410.297
415.396
419.718
423.221
425.870
427.634
428.495
428.438
427.461
425.566
422.767
419.085
414.548
409.192
403.060
396.202
388.671
380.529
371.837
362.663
353.075
343.143
332.937
322.527
311.981
301.365
290.743
280.176
269.718
259.423
249.338
239.504
229.959
220.735
211.859
203.352
195.230
187.506
180.188
173.277
166.773
160.673
154.968
149.649
144.702
140.115
135.870
131.951
128.338
104.931
104.330
103.728
103.124
102.518
101.911
101.302
100.691
100.078
99.464
98.848
98.230
97.611
96.990
96.368
95.744
95.118
94.491
93.862
93.231
92.599
91.966
91.331
90.694
90.056
89.416
88.775
88.132
87.488
86.842
86.195
85.546
84.896
84.245
83.592
82.938
82.282
81.625
80.967
80.307
79.646
78.983
78.319
77.654
76.988
76.320
75.651
74.981
74.309
73.637
72.963
72.287
71.611
70.933
70.254
69.574
68.893
68.211
67.527
66.843
66.157
65.470
64.782
64.093
63.403
62.712
62.019
61.326
60.632
59.936
59.240
58.543
57.844
57.145
56.445
55.743
55.041
54.338
53.634
52.929
52.223
51.517
50.809
50.101
49.392
48.681
47.971
47.259
46.546
45.833
45.119
44.404
43.689
42.973
42.256
41.538
40.819
40.100
39.381
38.660
37.939
37.217
36.495
35.772
35.048
34.324
33.600
32.874
32.148
31.422
30.695
29.968
29.240
28.511
27.783
27.053
26.323
25.593
24.862
24.131
23.400
22.668
21.936
21.203
20.470
19.737
19.003
18.269
17.535
16.800
16.065
15.330
14.594
13.859
13.123
12.387
11.650
10.914
10.177
9.440
8.703
7.966
7.229
6.491
5.754
5.016
4.278
3.541
2.803
2.065
1.327
0.589
-0.149
-0.887
-1.625
-200.696
-205.320
-202.509
-190.814
-168.956
-135.918
-91.030
-34.057
34.721
114.448
203.644
300.189
401.341
503.814
603.890
697.604
780.964
850.202
902.039
933.927
944.251
932.458
899.100
845.795
775.088
690.259
595.075
493.530
389.589
286.968
188.955
98.291
17.096
-53.149
-111.588
-157.943
-192.448
-215.771
-228.932
-233.208
-230.049
-32.442
-33.167
-33.892
-34.617
-35.341
-36.064
-36.787
-37.509
-38.230
-38.951
-39.671
-40.391
-41.110
-41.828
-42.545
-43.262
-43.978
-44.693
-45.408
-46.121
-46.834
-47.547
-48.258
-48.968
-49.678
-50.387
-51.095
-51.802
-52.509
-53.214
-53.919
-54.622
-55.325
-56.027
-56.728
-57.427
-58.126
-58.824
-59.521
-60.217
-38.103
-35.782
-33.151
-30.191
-26.886
-23.219
-19.176
-14.745
-9.915
-4.679
0.967
7.024
13.489
20.355
27.609
35.236
43.214
51.516
60.109
68.958
78.019
87.246
96.587
105.984
115.379
124.708
133.904
142.900
151.624
160.008
167.982
175.476
182.425
188.766
194.437
199.386
203.562
206.924
209.433
211.063
211.792
211.608
210.507
208.492
205.576
201.781
197.134
191.672
185.439
178.482
170.856
162.623
153.844
144.586
134.918
124.909
114.630
104.151
93.540
82.862
72.182
61.560
51.052
40.710
30.581
20.708
11.127
1.871
-7.035
-15.567
-23.710
-31.451
-38.784
-45.705
-52.215
-58.319
-64.023
-69.338
-74.276
-78.851
-83.081
-86.981
-90.570
-113.952
-114.522
-115.090
-115.657
-116.221
-116.784
-117.345
-117.903
-118.460
-119.014
-119.567
-120.118
-120.666
-121.213
-121.757
-122.300
-122.840
-123.379
-123.915
-124.449
-124.981
-125.511
-126.039
-126.565
-127.089
-127.610
-128.130
-128.647
-129.162
-129.675
-130.186
-130.694
-131.201
-131.705
-132.207
-132.706
-133.204
-133.699
-134.192
-134.683
-135.171
-135.657
-136.141
-136.623
-137.102
-137.579
-138.054
-138.526
-138.996
-139.464
-139.930
-140.393
-140.853
-141.312
-141.768
-142.221
-142.672
-143.121
-143.567
-144.011
-144.453
-144.892
-145.328
-145.763
-146.194
-146.624
-147.051
-147.475
-147.897
-148.316
-148.733
-149.148
-149.559
-149.969
-150.376
-150.780
-151.182
-151.581
-151.978
-152.372
-152.764
-153.153
-153.539
-153.923
-154.304
-154.683
-155.059
-155.432
-155.803
-156.172
-156.537
-156.900
-157.261
-157.618
-157.973
-158.326
-158.676
-159.023
-159.367
-159.709
-160.048
-160.384
-160.718
-161.049
-161.377
-161.703
-162.025
-162.345
-162.663
-162.977
-163.289
-163.599
-163.905
-164.209
-164.509
-164.808
-165.103
-165.396
-165.685
-165.972
-166.257
-166.538
-166.817
-167.092
-167.365
-167.636
-167.903
-168.168
-168.429
-168.688
-168.944
-169.198
-169.448
-169.695
-169.940
-170.182
-170.421
-170.657
-170.890
-171.121
-171.348
-171.573
-171.794
-172.013
-172.229
-172.442
-172.652
-172.860
-173.064
-173.265
-173.464
-173.660
-173.852
-174.042
-174.229
-174.413
-174.594
-174.772
-174.947
-175.119
-175.288
-175.454
-175.618
-175.778
-175.936
-176.090
-176.242
-176.390
-176.536
-176.678
-176.818
-176.955
-177.088
-177.219
-177.347
-177.471
-177.593
-177.712
-177.828
-177.941
-178.050
-178.157
-178.261
-178.362
-178.460
-178.555
-178.646
-178.735
-178.821
-178.904
-178.984
-179.061
-179.134
-179.205
-179.273
-179.338
-179.399
-179.458
-179.514
-179.567
-179.616
-179.663
-179.706
-179.747
-179.785
-179.819
-179.851
-179.879
-179.905
-179.927
-179.947
-179.963
-179.977
-179.987
-179.994
-179.999
-180.000
-179.998
-179.994
-179.986
-179.975
-179.961
-179.944
-179.924
-179.902
-179.876
-179.847
-179.815
-179.780
-179.742
-179.701
-179.657
-179.610
-179.559
-179.506
-179.450
-179.391
-179.329
-179.264
-179.196
-179.124
-179.050
-178.973
-178.893
-178.809
-178.723
-178.634
-178.542
-178.446
-178.348
-178.247
-178.143
-178.035
-177.925
-177.812
-177.696
-177.577
-177.454
-177.329
-177.201
-177.070
-176.936
-176.799
-176.659
-176.516
-176.370
-176.221
-176.069
-175.914
-175.756
-175.595
-175.432
-175.265
-175.095
-174.923
-174.747
-174.569
-174.388
-174.203
-174.016
-173.826
-173.633
-173.437
-173.238
-173.036
-172.831
-172.624
-172.413
-172.200
-171.983
-171.764
-171.542
-171.317
-171.089
-170.858
-170.625
-170.388
-170.149
-169.907
-169.661
-169.414
-169.163
-168.909
-168.653
-168.393
-168.131
-167.866
-167.599
-167.328
-167.055
-166.778
-166.499
-166.218
-165.933
-165.646
-165.355
-165.062
-164.767
-164.468
-164.167
-163.863
-163.556
-163.247
-162.934
-162.619
-162.301
-161.981
-161.658
-161.332
-161.003
-160.672
-160.338
-160.001
-159.662
-159.320
-158.975
-158.627
-158.277
-157.925
-157.569
-157.211
-156.850
-156.487
-156.121
-155.752
-155.381
-155.007
-154.631
-154.252
-153.870
-153.486
-153.099
-152.710
-152.318
-151.923
-151.526
-151.127
-150.724
-150.320
-149.912
-149.503
-149.091
-148.676
-148.259
-147.839
-147.417
-146.992
-146.565
-146.135
-145.703
-145.268
-144.831
-144.392
-143.950
-143.506
-143.059
-142.610
-142.159
-141.705
-141.248
-140.790
-140.329
-139.866
-139.400
-138.932
-138.461
-137.989
-335.847
-339.256
-335.227
-322.312
-299.232
-264.970
-218.856
-160.655
-90.646
-9.687
80.745
178.526
280.918
384.631
485.950
580.909
665.516
736.003
789.090
822.230
833.809
823.272
791.173
739.127
669.682
586.117
492.198
391.920
289.248
187.897
91.157
1.766
-78.153
-147.121
-204.282
-249.357
-282.580
-304.621
-316.497
-319.487
-315.040
-116.144
-115.579
-115.012
-114.443
-113.873
-113.300
-112.726
-112.150
-111.572
-110.992
-110.410
-109.826
-109.240
-108.653
-108.064
-107.472
-106.880
-106.285
-105.688
-105.090
-104.490
-103.888
-103.285
-102.679
-102.073
-101.464
-100.853
-100.241
-99.627
-99.012
-98.395
-97.776
-97.156
-96.534
-95.910
-95.285
-94.658
-94.029
-93.399
-92.768
-69.325
-65.675
-61.715
-57.425
-52.790
-47.793
-42.419
-36.657
-30.495
-23.927
-16.949
-9.559
-1.761
6.438
15.026
23.987
33.298
42.934
52.862
63.045
73.441
84.002
94.677
105.409
116.139
126.802
137.333
147.662
157.722
167.440
176.748
185.576
193.859
201.533
208.538
214.820
220.329
225.023
228.865
231.827
233.888
235.035
235.264
234.580
232.994
230.529
227.211
223.078
218.172
212.543
206.244
199.337
191.884
183.951
175.607
166.922
157.967
148.810
139.520
130.163
120.803
111.500
102.311
93.286
84.474
75.916
67.650
59.708
52.115
44.895
38.063
31.631
25.607
19.993
14.790
9.992
5.592
1.580
-2.056
-5.331
-8.261
-10.863
-13.155
-35.241
-34.517
-33.792
-33.067
-32.342
-31.615
-30.889
-30.161
-29.434
-28.705
-27.976
-27.247
-26.518
-25.787
-25.057
-24.326
-23.594
-22.863
-22.130
-21.398
-20.665
-19.932
-19.198
-18.464
-17.730
-16.995
-16.261
-15.525
-14.790
-14.054
-13.319
-12.583
-11.846
-11.110
-10.373
-9.636
-8.899
-8.162
-7.425
-6.687
-5.950
-5.212
-4.475
-3.737
-2.999
-2.261
-1.523
-0.785
-0.047
0.691
1.429
2.167
2.905
3.642
4.380
5.118
5.856
6.593
7.331
8.068
8.805
9.542
10.279
11.016
11.752
12.488
13.224
13.960
14.696
15.431
16.166
16.901
17.636
18.370
19.104
19.838
20.571
21.304
22.037
22.769
23.501
24.232
24.963
25.694
26.424
27.154
27.883
28.612
29.340
30.068
30.796
31.522
32.249
32.974
33.700
34.424
35.148
35.872
36.595
37.317
38.039
38.760
39.480
40.200
40.919
41.637
42.355
43.071
43.788
44.503
45.218
45.932
46.645
47.357
48.069
48.780
49.489
50.199
50.907
51.614
52.321
53.027
53.731
54.435
55.138
55.840
56.541
57.241
57.941
58.639
59.336
60.032
60.727
61.422
62.115
62.807
63.498
64.188
64.877
65.565
66.251
66.937
67.622
68.305
68.987
69.668
70.348
71.027
71.704
72.381
73.056
73.729
74.402
75.073
75.744
76.412
77.080
77.746
78.411
79.075
79.737
80.398
81.057
81.716
82.373
83.028
83.682
84.335
84.986
85.636
86.284
86.931
87.577
88.221
88.863
89.504
90.144
90.782
91.418
92.053
92.687
93.318
93.949
94.577
95.204
95.830
96.454
97.076
97.697
98.316
98.933
99.549
100.163
100.775
101.386
101.995
102.602
103.207
103.811
104.413
105.013
105.612
106.209
106.804
107.397
107.988
108.577
109.165
109.751
110.335
110.917
111.497
112.076
112.652
113.227
113.800
114.371
114.939
115.506
116.071
116.635
117.196
117.755
118.312
118.867
119.420
119.971
120.521
121.068
121.613
122.156
122.697
123.236
123.773
124.307
124.840
125.371
125.899
126.426
126.950
127.472
127.992
128.510
129.025
129.539
130.050
130.559
131.066
131.571
132.073
132.574
133.072
133.568
134.061
134.552
135.042
135.528
136.013
136.495
136.975
137.453
137.928
138.401
138.872
139.340
139.806
140.270
140.731
141.190
141.646
142.101
142.552
143.002
143.449
143.893
144.336
144.775
145.213
145.647
146.080
146.510
146.937
147.362
147.785
148.205
148.622
149.038
149.450
149.860
150.268
150.673
151.075
151.475
151.873
152.267
152.660
153.049
153.436
153.821
154.203
154.582
154.959
155.333
-42.628
-46.145
-42.230
-29.433
-6.477
27.657
73.639
131.702
201.567
282.379
372.658
470.282
572.511
676.057
777.203
871.986
956.410
1026.710
1079.605
1112.549
1123.926
1113.183
1080.872
1028.610
958.944
875.153
781.004
680.490
577.578
475.981
378.991
289.345
209.166
139.933
82.502
37.153
3.651
-18.673
-30.838
-34.122
-29.973
168.620
168.876
169.130
169.382
169.630
169.875
170.118
170.358
170.595
170.829
171.060
171.288
171.513
171.736
171.955
172.172
172.386
172.597
172.805
173.010
173.212
173.411
173.608
173.801
173.992
174.179
174.364
174.546
174.725
174.901
175.073
175.244
175.411
175.575
175.736
175.894
176.049
176.202
176.351
176.497
199.450
202.605
206.067
209.853
213.981
218.465
223.322
228.564
234.199
240.237
246.681
253.532
260.787
268.438
276.474
284.878
293.628
302.698
312.056
321.665
331.482
341.461
351.549
361.689
371.823
381.886
391.813
401.534
410.980
420.081
428.767
436.970
444.623
451.663
458.030
463.669
468.532
472.575
475.762
478.065
479.462
479.942
479.500
478.140
475.874
472.725
468.719
463.894
458.292
451.963
444.961
437.345
429.180
420.531
411.467
402.058
392.375
382.486
372.460
362.364
352.260
342.210
332.269
322.489
312.917
303.597
294.564
285.851
277.484
269.485
261.871
254.654
247.840
241.434
235.433
229.834
224.630
219.810
215.363
211.272
207.523
204.098
200.980
178.064
177.955
177.842
177.727
177.609
177.487
177.363
177.235
177.105
176.972
176.836
176.696
176.554
176.409
176.261
176.110
175.956
175.799
175.639
175.476
175.310
175.141
174.969
174.794
174.617
174.436
174.253
174.066
173.877
173.684
173.489
173.291
173.090
172.886
172.679
172.469
172.257
172.041
171.823
171.601
171.377
171.150
170.920
170.687
170.451
170.213
169.971
169.727
169.480
169.230
168.977
168.721
168.463
168.201
167.937
167.670
167.400
167.128
166.852
166.574
166.293
166.009
165.722
165.433
165.141
164.846
164.548
164.247
163.944
163.638
163.329
163.018
162.703
162.386
162.067
161.744
161.419
161.091
160.760
160.427
160.091
159.752
159.411
159.067
158.720
158.371
158.019
157.664
157.307
156.946
156.584
156.219
155.851
155.480
155.107
154.731
154.353
153.972
153.588
153.202
152.813
152.422
152.028
151.632
151.233
150.832
150.428
150.021
149.612
149.200
148.786
148.370
147.951
147.529
147.105
146.679
146.250
145.818
145.384
144.948
144.509
144.068
143.624
143.178
142.730
142.279
141.826
141.370
140.912
140.452
139.989
139.524
139.056
138.587
138.115
137.640
137.163
136.684
136.203
135.720
135.234
134.745
134.255
133.762
133.267
132.770
132.271
131.769
131.265
130.759
130.251
129.741
129.228
128.713
128.196
127.677
127.156
126.632
126.107
125.579
125.049
124.518
123.984
123.448
122.909
122.369
121.827
121.283
120.736
120.188
119.638
119.085
118.531
117.975
117.416
116.856
116.294
115.729
115.163
114.595
114.025
113.453
112.879
112.303
111.726
111.146
110.565
109.981
109.396
108.809
108.220
107.630
107.037
106.443
105.847
105.249
104.650
104.049
103.445
102.841
102.234
101.626
101.016
100.404
99.791
99.176
98.559
97.941
97.321
96.699
96.076
95.451
94.825
94.197
93.567
92.936
92.303
91.669
91.033
90.395
89.756
89.116
88.474
87.831
87.186
86.539
85.892
85.242
84.592
83.939
83.286
82.631
81.975
81.317
80.658
79.998
79.336
78.673
78.008
77.343
76.676
76.007
75.338
74.667
73.995
73.321
72.647
71.971
71.294
70.616
69.936
69.256
68.574
67.891
67.207
66.522
65.835
65.148
64.460
63.770
63.079
62.388
61.695
61.001
60.306
59.610
58.914
58.216
57.517
56.817
56.117
55.415
54.712
54.009
53.304
52.599
51.893
51.186
50.478
49.769
49.059
48.349
47.638
46.926
46.213
45.499
44.785
44.070
43.354
42.637
41.920
41.202
40.483
-158.570
-163.176
-160.348
-148.636
-126.763
-93.709
-48.807
8.179
76.970
156.709
245.917
342.472
443.635
546.116
646.201
739.924
823.291
892.535
944.377
976.270
986.599
974.809
941.455
888.151
817.446
732.617
637.434
535.888
431.946
329.323
231.307
140.640
59.440
-10.810
-69.255
-115.616
-150.128
-173.459
-186.628
-190.914
-187.764
9.832
9.095
8.358
7.621
6.884
6.146
5.409
4.671
3.933
3.195
2.457
1.719
0.982
0.244
-0.494
-1.232
-1.970
-2.708
-3.446
-4.184
-4.922
-5.659
-6.397
-7.134
-7.872
-8.609
-9.346
-10.083
-10.820
-11.556
-12.293
-13.029
-13.765
-14.500
-15.236
-15.971
-16.706
-17.441
-18.175
-18.909
3.166
5.448
8.039
10.958
14.222
17.846
21.846
26.234
31.019
36.210
41.810
47.821
54.239
61.057
68.264
75.841
83.769
92.020
100.563
109.360
118.369
127.542
136.829
146.172
155.512
164.784
173.924
182.862
191.529
199.854
207.769
215.203
222.092
228.371
233.981
238.867
242.980
246.277
248.722
250.287
250.950
250.699
249.530
247.448
244.464
240.599
235.883
230.350
224.045
217.017
209.319
201.012
192.159
182.827
173.084
163.000
152.645
142.089
131.399
120.644
109.885
99.184
88.596
78.173
67.962
58.007
48.344
39.004
30.015
21.398
13.170
5.343
-2.076
-9.084
-15.682
-21.874
-27.667
-33.071
-38.099
-42.765
-47.086
-51.078
-54.760
-78.234
-78.898
-79.561
-80.222
-80.882
-81.541
-82.198
-82.854
-83.508
-84.161
-84.813
-85.463
-86.112
-86.759
-87.405
-88.050
-88.692
-89.334
-89.974
-90.612
-91.249
-91.884
-92.518
-93.151
-93.781
-94.410
-95.038
-95.664
-96.288
-96.911
-97.532
-98.151
-98.769
-99.385
-100.000
-100.612
-101.224
-101.833
-102.441
-103.046
-103.651
-104.253
-104.854
-105.453
-106.050
-106.645
-107.239
-107.831
-108.421
-109.009
-109.595
-110.180
-110.762
-111.343
-111.922
-112.499
-113.074
-113.648
-114.219
-114.788
-115.356
-115.921
-116.485
-117.047
-117.606
-118.164
-118.720
-119.273
-119.825
-120.375
-120.922
-121.468
-122.012
-122.553
-123.093
-123.630
-124.165
-124.699
-125.230
-125.759
-126.286
-126.811
-127.333
-127.854
-128.372
-128.888
-129.402
-129.914
-130.424
-130.932
-131.437
-131.940
-132.441
-132.939
-133.436
-133.930
-134.422
-134.912
-135.399
-135.884
-136.367
-136.848
-137.326
-137.802
-138.275
-138.747
-139.216
-139.682
-140.147
-140.609
-141.068
-141.525
-141.980
-142.432
-142.883
-143.330
-143.775
-144.218
-144.659
-145.096
-145.532
-145.965
-146.396
-146.824
-147.249
-147.673
-148.093
-148.512
-148.927
-149.341
-149.751
-150.160
-150.565
-150.968
-151.369
-151.767
-152.163
-152.556
-152.946
-153.334
-153.719
-154.102
-154.482
-154.859
-155.234
-155.606
-155.976
-156.343
-156.707
-157.069
-157.428
-157.785
-158.139
-158.490
-158.838
-159.184
-159.527
-159.868
-160.206
-160.541
-160.873
-161.203
-161.530
-161.854
-162.176
-162.494
-162.810
-163.124
-163.434
-163.742
-164.047
-164.350
-164.649
-164.946
-165.240
-165.532
-165.820
-166.106
-166.389
-166.669
-166.946
-167.221
-167.492
-167.761
-168.027
-168.290
-168.551
-168.808
-169.063
-169.315
-169.564
-169.810
-170.054
-170.294
-170.532
-170.767
-170.998
-171.227
-171.454
-171.677
-171.897
-172.115
-172.329
-172.541
-172.750
-172.956
-173.159
-173.359
-173.556
-173.750
-173.941
-174.130
-174.315
-174.498
-174.677
-174.854
-175.028
-175.199
-175.366
-175.531
-175.693
-175.852
-176.008
-176.161
-176.311
-176.459
-176.603
-176.744
-176.882
-177.018
-177.150
-177.279
-177.405
-177.529
-177.649
-177.767
-177.881
-177.992
-178.101
-178.206
-178.309
-178.408
-178.505
-178.598
-178.688
-178.776
-178.860
-178.942
-179.020
-179.095
-179.168
-179.237
-179.304
-179.367
-179.427
-179.485
-179.539
-179.590
-179.638
-179.684
-179.726
-179.765
-179.801
-179.834
-179.865
-179.892
-179.916
-179.937
-179.955
-179.970
-179.982
-179.991
-179.997
-180.000
-180.000
-179.996
-179.990
-179.981
-179.969
-179.954
-179.935
-179.914
-179.890
-179.862
-179.832
-179.799
-179.762
-179.723
-179.680
-179.635
-179.586
-179.535
-179.480
-179.423
-179.362
-179.299
-179.232
-179.163
-179.090
-179.014
-178.936
-178.854
-178.769
-178.682
-178.591
-178.497
-178.401
-178.301
-178.199
-178.093
-177.984
-177.873
-177.758
-177.640
-177.520
-177.396
-177.270
-177.140
-177.008
-176.872
-176.734
-176.592
-176.448
-176.300
-176.150
-175.997
-374.174
-377.901
-374.190
-361.591
-338.828
-304.881
-259.081
-201.195
-131.500
-50.853
39.266
136.736
238.817
342.220
443.230
537.881
622.180
692.359
745.140
777.975
789.249
778.408
746.005
693.657
623.910
540.043
445.825
345.247
242.276
140.628
43.590
-46.097
-126.312
-195.575
-253.030
-298.398
-331.913
-354.245
-366.412
-369.692
-365.533
-166.926
-166.648
-166.368
-166.085
-165.799
-165.510
-165.219
-164.924
-164.627
-164.327
-164.025
-163.720
-163.412
-163.101
-162.787
-162.471
-162.152
-161.830
-161.506
-161.178
-160.849
-160.516
-160.181
-159.843
-159.502
-159.159
-158.813
-158.464
-158.113
-157.759
-157.402
-157.043
-156.681
-156.316
-155.949
-155.579
-155.206
-154.831
-154.454
-154.073
-130.882
-127.481
-123.769
-119.726
-115.337
-110.585
-105.456
-99.936
-94.017
-87.690
-80.951
-73.800
-66.239
-58.277
-49.924
-41.198
-32.120
-22.716
-13.019
-3.067
7.100
17.434
27.882
38.389
48.894
59.334
69.643
79.751
89.591
99.090
108.181
116.793
124.860
132.320
139.112
145.182
150.481
154.965
158.599
161.354
163.209
164.152
164.177
163.291
161.504
158.838
155.322
150.992
145.889
140.065
133.573
126.473
118.828
110.705
102.173
93.300
84.158
74.816
65.342
55.803
46.261
36.778
27.410
18.207
9.219
0.486
-7.954
-16.070
-23.833
-31.224
-38.225
-44.824
-51.014
-56.793
-62.160
-67.120
-71.681
-75.853
-79.647
-83.080
-86.165
-88.922
-91.368
-113.605
-113.032
-112.457
-111.879
-111.300
-110.719
-110.137
-109.552
-108.966
-108.377
-107.787
-107.195
-106.601
-106.006
-105.409
-104.810
-104.209
-103.606
-103.002
-102.396
-101.788
-101.178
-100.567
-99.954
-99.340
-98.723
-98.106
-97.486
-96.865
-96.242
-95.618
-94.991
-94.364
-93.735
-93.104
-92.471
-91.837
-91.202
-90.565
-89.926
-89.286
-88.645
-88.002
-87.357
-86.711
-86.064
-85.415
-84.765
-84.113
-83.460
-82.805
-82.149
-81.492
-80.833
-80.173
-79.512
-78.849
-78.185
-77.520
-76.853
-76.185
-75.516
-74.845
-74.174
-73.500
-72.826
-72.151
-71.474
-70.796
-70.117
-69.437
-68.755
-68.073
-67.389
-66.704
-66.018
-65.331
-64.643
-63.954
-63.263
-62.572
-61.879
-61.186
-60.491
-59.796
-59.099
-58.402
-57.703
-57.003
-56.303
-55.602
-54.899
-54.196
-53.492
-52.787
-52.081
-51.374
-50.666
-49.958
-49.248
-48.538
-47.827
-47.115
-46.402
-45.689
-44.975
-44.260
-43.544
-42.828
-42.111
-41.393
-40.674
-39.955
-39.235
-38.515
-37.793
-37.071
-36.349
-35.626
-34.902
-34.178
-33.453
-32.728
-32.002
-31.275
-30.548
-29.821
-29.093
-28.364
-27.635
-26.906
-26.176
-25.446
-24.715
-23.984
-23.252
-22.520
-21.788
-21.055
-20.322
-19.588
-18.855
-18.121
-17.386
-16.651
-15.917
-15.181
-14.446
-13.710
-12.974
-12.238
-11.502
-10.765
-10.028
-9.291
-8.554
-7.817
-7.080
-6.342
-5.605
-4.867
-4.129
-3.392
-2.654
-1.916
-1.178
-0.440
0.298
1.036
1.774
2.512
3.250
3.988
4.725
5.463
6.201
6.938
7.676
8.413
9.150
9.887
10.624
11.360
12.097
12.833
13.569
14.305
15.040
15.775
16.510
17.245
17.980
18.714
19.448
20.181
20.914
21.647
22.379
23.111
23.843
24.574
25.305
26.036
26.766
27.495
28.224
28.953
29.681
30.409
31.136
31.862
32.588
33.314
34.039
34.763
35.487
36.210
36.933
37.655
38.376
39.097
39.817
40.536
41.255
41.973
42.690
43.407
44.123
44.838
45.552
46.266
46.978
47.690
48.402
49.112
49.821
50.530
51.238
51.945
52.651
53.356
54.061
54.764
55.467
56.168
56.869
57.569
58.267
58.965
59.662
60.358
61.052
61.746
62.439
63.131
63.821
64.511
-133.134
-136.333
-132.098
-118.980
-95.700
-61.242
-14.934
43.456
113.650
194.793
285.403
383.360
485.924
589.806
691.290
786.412
871.177
941.819
995.058
1028.346
1040.069
1029.674
997.712
945.801
876.486
793.048
699.254
599.096
496.541
395.303
298.672
209.388
129.572
60.703
3.638
-41.344
-74.479
-96.434
-108.228
-111.139
-106.617
92.350
92.982
93.614
94.243
94.871
95.497
96.122
96.745
97.367
97.987
98.605
99.221
99.836
100.450
101.061
101.671
102.279
102.885
103.490
104.093
104.694
105.294
105.891
106.487
107.081
107.674
108.264
108.853
109.440
110.025
110.608
111.189
111.768
112.346
112.922
113.495
114.067
114.637
115.205
115.771
139.144
142.722
146.606
150.816
155.368
160.279
165.562
171.231
177.296
183.763
190.637
197.920
205.607
213.691
222.161
231.001
240.187
249.694
259.490
269.538
279.795
290.213
300.743
311.326
321.902
332.410
342.781
352.947
362.840
372.388
381.522
390.174
398.277
405.767
412.585
418.676
423.991
428.487
432.129
434.886
436.739
437.675
437.690
436.788
434.981
432.290
428.745
424.380
419.239
413.372
406.832
399.679
391.978
383.793
375.194
366.251
357.034
347.611
338.053
328.424
318.789
309.208
299.737
290.427
281.326
272.477
263.915
255.674
247.781
240.255
233.115
226.372
220.033
214.101
208.576
203.454
198.726
194.383
190.413
186.800
183.529
180.583
177.944
155.508
155.878
156.246
156.611
156.973
157.333
157.690
158.045
158.397
158.746
159.092
159.436
159.777
160.116
160.452
160.785
161.115
161.443
161.768
162.090
162.410
162.727
163.041
163.352
163.661
163.967
164.270
164.570
164.867
165.162
165.454
165.744
166.030
166.314
166.594
166.873
167.148
167.420
167.690
167.957
168.221
168.482
168.740
168.996
169.248
169.498
169.745
169.989
170.230
170.469
170.704
170.937
171.167
171.394
171.618
171.839
172.057
172.272
172.485
172.694
172.901
173.105
173.306
173.504
173.699
173.891
174.080
174.266
174.450
174.630
174.807
174.982
175.153
175.322
175.488
175.650
175.810
175.967
176.121
176.272
176.420
176.565
176.707
176.846
176.982
177.115
177.245
177.372
177.496
177.617
177.736
177.851
177.963
178.072
178.178
178.282
178.382
178.479
178.573
178.665
178.753
178.838
178.920
178.999
179.076
179.149
179.219
179.286
179.350
179.411
179.470
179.525
179.577
179.626
179.672
179.715
179.755
179.792
179.826
179.857
179.885
179.910
179.932
179.950
179.966
179.979
179.989
179.995
179.999
180.000
179.998
179.992
179.984
179.972
179.958
179.941
179.920
179.897
179.870
179.840
179.808
179.772
179.734
179.692
179.647
179.600
179.549
179.495
179.438
179.379
179.316
179.250
179.181
179.110
179.035
178.957
178.876
178.792
178.705
178.616
178.523
178.427
178.328
178.226
178.121
178.013
177.903
177.789
177.672
177.552
177.429
177.304
177.175
177.043
176.908
176.771
176.630
176.487
176.340
176.190
176.038
175.882
175.724
175.563
175.398
175.231
175.061
174.888
174.712
174.532
174.351
174.166
173.978
173.787
173.593
173.397
173.197
172.995
172.790
172.581
172.370
172.156
171.939
171.719
171.497
171.271
171.043
170.811
170.577
170.340
170.100
169.857
169.612
169.363
169.112
168.858
168.601
168.341
168.078
167.812
167.544
167.273
166.999
166.722
166.443
166.160
165.875
165.587
165.296
165.003
164.707
164.407
164.106
163.801
163.494
163.184
162.871
162.555
162.237
161.916
161.592
161.266
160.937
160.605
160.270
159.933
159.593
159.250
158.905
158.557
158.206
157.853
157.497
157.138
156.777
156.413
156.047
155.678
155.306
154.931
154.554
154.175
153.793
153.408
153.021
152.631
152.238
151.843
151.446
151.045
150.643
150.238
149.830
149.420
149.007
148.592
148.174
147.754
147.331
146.906
146.478
146.048
145.615
145.180
144.743
144.303
143.861
143.416
142.969
142.519
142.067
141.613
141.156
140.697
140.235
139.772
139.305
138.837
138.366
137.893
137.417
136.940
136.459
135.977
135.492
135.005
134.516
134.025
133.531
133.035
132.537
132.036
131.534
131.029
130.522
130.012
129.501
128.987
128.471
127.953
127.433
126.911
126.387
125.860
125.332
124.801
124.268
123.733
123.196
122.657
122.116
121.573
121.027
120.480
119.931
119.379
118.826
118.271
117.713
117.154
116.593
116.030
115.465
114.897
114.328
113.757
113.185
112.610
112.033
111.455
110.874
110.292
109.708
109.122
108.534
107.944
107.353
106.760
106.164
105.568
104.969
104.369
103.767
103.163
102.557
101.950
101.341
100.730
100.117
99.503
98.888
98.270
97.651
97.030
96.408
95.784
95.158
94.531
93.902
93.272
92.640
92.006
91.371
90.735
90.096
89.457
88.816
88.173
87.529
86.883
-112.097
-116.631
-113.732
-101.951
-80.008
-46.886
-1.916
55.136
123.993
203.798
293.070
389.689
490.915
593.458
693.605
787.388
870.814
940.118
992.018
1023.968
1034.353
1022.619
989.320
936.070
865.418
780.643
685.511
584.016
480.124
377.550
279.583
188.963
107.810
37.606
-20.793
-67.110
-101.578
-124.867
-137.994
-142.239
-139.049
58.587
57.889
57.190
56.489
55.788
55.086
54.383
53.679
52.974
52.269
51.562
50.854
50.146
49.437
48.727
48.016
47.304
46.592
45.879
45.165
44.450
43.735
43.018
42.301
41.584
40.865
40.146
39.427
38.706
37.985
37.264
36.541
35.818
35.095
34.371
33.646
32.921
32.195
31.469
30.742
52.823
55.111
57.707
60.629
63.896
67.523
71.524
75.912
80.697
85.886
91.485
97.493
103.907
110.721
117.922
125.493
133.414
141.657
150.191
158.979
167.977
177.139
186.414
195.744
205.070
214.329
223.453
232.375
241.025
249.332
257.228
264.643
271.511
277.769
283.357
288.220
292.309
295.582
298.002
299.540
300.177
299.898
298.701
296.589
293.574
289.678
284.930
279.365
273.026
265.963
258.231
249.888
240.998
231.628
221.846
211.723
201.328
190.730
180.000
169.201
158.399
147.653
137.020
126.552
116.295
106.292
96.580
87.191
78.152
69.485
61.205
53.326
45.853
38.791
32.139
25.892
20.042
14.581
9.495
4.770
0.389
-3.663
-7.406
-30.942
-31.669
-32.395
-33.121
-33.846
-34.571
-35.295
-36.018
-36.741
-37.463
-38.184
-38.905
-39.625
-40.345
-41.064
-41.782
-42.499
-43.216
-43.932
-44.647
-45.362
-46.076
-46.789
-47.501
-48.212
-48.923
-49.633
-50.342
-51.050
-51.757
-52.463
-53.169
-53.874
-54.577
-55.280
-55.982
-56.683
-57.383
-58.082
-58.780
-59.477
-60.173
-60.868
-61.562
-62.255
-62.947
-63.637
-64.327
-65.016
-65.704
-66.390
-67.075
-67.760
-68.443
-69.125
-69.806
-70.485
-71.164
-71.841
-72.517
-73.192
-73.865
-74.538
-75.209
-75.879
-76.547
-77.215
-77.881
-78.545
-79.209
-79.871
-80.531
-81.191
-81.849
-82.505
-83.160
-83.814
-84.466
-85.117
-85.767
-86.415
-87.062
-87.707
-88.351
-88.993
-89.634
-90.273
-90.910
-91.547
-92.181
-92.814
-93.446
-94.076
-94.704
-95.331
-95.956
-96.580
-97.202
-97.822
-98.441
-99.058
-99.673
-100.287
-100.899
-101.509
-102.117
-102.724
-103.329
-103.933
-104.535
-105.134
-105.733
-106.329
-106.923
-107.516
-108.107
-108.696
-109.284
-109.869
-110.453
-111.035
-111.614
-112.192
-112.769
-113.343
-113.915
-114.486
-115.054
-115.621
-116.185
-116.748
-117.309
-117.867
-118.424
-118.979
-119.532
-120.083
-120.631
-121.178
-121.723
-122.265
-122.806
-123.344
-123.881
-124.415
-124.947
-125.478
-126.006
-126.532
-127.055
-127.577
-128.097
-128.614
-129.129
-129.642
-130.153
-130.662
-131.168
-131.673
-132.175
-132.674
-133.172
-133.667
-134.161
-134.651
-135.140
-135.626
-136.110
-136.592
-137.072
-137.549
-138.024
-138.496
-138.966
-139.434
-139.900
-140.363
-140.824
-141.282
-141.738
-142.192
-142.643
-143.092
-143.539
-143.983
-144.425
-144.864
-145.301
-145.735
-146.167
-146.596
-147.023
-147.448
-147.870
-148.289
-148.707
-149.121
-149.533
-149.943
-150.350
-150.754
-151.156
-151.556
-151.952
-152.347
-152.739
-153.128
-153.514
-153.898
-154.280
-154.659
-155.035
-155.409
-155.780
-156.148
-156.514
-156.877
-157.238
-157.595
-157.951
-158.303
-158.653
-159.000
-159.345
-159.687
-160.026
-160.363
-160.697
-161.028
-161.356
-161.682
-162.005
-162.325
-162.643
-162.957
-163.270
-163.579
-163.885
-164.189
-164.490
-164.789
-165.084
-165.377
-165.667
-165.954
-166.238
-166.520
-166.799
-167.075
-167.348
-167.618
-167.886
-168.151
-168.413
-168.672
-168.928
-169.181
-169.432
-169.680
-169.925
-170.167
-170.406
-170.642
-170.875
-171.106
-171.334
-171.558
-171.780
-171.999
-172.215
-172.429
-172.639
-172.846
-173.051
-173.253
-173.451
-173.647
-173.840
-174.030
-174.217
-174.401
-174.582
-174.760
-174.936
-175.108
-175.277
-175.444
-175.607
-175.768
-175.926
-176.080
-176.232
-176.381
-176.526
-176.669
-176.809
-176.946
-177.080
-177.211
-177.339
-177.464
-177.586
-177.705
-177.820
-177.933
-178.044
-178.151
-178.255
-178.356
-178.454
-178.549
-178.641
-178.730
-178.816
-178.899
-178.979
-179.056
-377.463
-381.420
-377.939
-365.571
-343.038
-309.320
-263.751
-206.094
-136.629
-56.211
33.678
130.919
232.771
335.944
436.725
531.147
615.217
685.168
737.720
770.326
781.372
770.302
737.672
685.095
615.120
531.026
436.580
335.775
232.577
130.701
33.437
-56.477
-136.919
-206.408
-264.089
-309.683
-343.424
-365.982
-378.374
-381.879
-377.946
-179.563
-179.510
-179.454
-179.395
-179.333
-179.268
-179.200
-179.129
-179.055
-178.978
-178.898
-178.815
-178.729
-178.640
-178.548
-178.453
-178.355
-178.254
-178.149
-178.042
-177.932
-177.819
-177.703
-177.584
-177.462
-177.337
-177.209
-177.078
-176.945
-176.808
-176.668
-176.525
-176.379
-176.230
-176.079
-175.924
-175.766
-175.606
-175.442
-175.276
-152.297
-149.110
-145.610
-141.780
-137.603
-133.063
-128.144
-122.836
-117.126
-111.010
-104.481
-97.539
-90.187
-82.433
-74.288
-65.770
-56.899
-47.702
-38.212
-28.465
-18.504
-8.375
1.868
12.171
22.472
32.709
42.815
52.721
62.358
71.656
80.545
88.957
96.824
104.084
110.678
116.549
121.649
125.936
129.373
131.931
133.589
134.336
134.167
133.085
131.104
128.245
124.535
120.012
114.718
108.701
102.018
94.728
86.893
78.580
69.859
60.798
51.468
41.938
32.277
22.552
12.825
3.156
-6.397
-15.783
-24.955
-33.871
-42.494
-50.790
-58.735
-66.306
-73.487
-80.266
-86.635
-92.591
-98.136
-103.274
-108.011
-112.358
-116.328
-119.935
-123.194
-126.124
-128.743
-151.152
-150.750
-150.346
-149.939
-149.529
-149.117
-148.702
-148.285
-147.866
-147.444
-147.019
-146.592
-146.163
-145.731
-145.296
-144.859
-144.420
-143.978
-143.534
-143.088
-142.639
-142.188
-141.734
-141.278
-140.819
-140.358
-139.895
-139.430
-138.962
-138.492
-138.019
-137.544
-137.067
-136.587
-136.106
-135.622
-135.135
-134.647
-134.156
-133.663
-133.167
-132.669
-132.170
-131.668
-131.163
-130.657
-130.148
-129.637
-129.124
-128.609
-128.091
-127.572
-127.050
-126.526
-126.000
-125.472
-124.942
-124.410
-123.875
-123.339
-122.800
-122.260
-121.717
-121.173
-120.626
-120.077
-119.526
-118.973
-118.419
-117.862
-117.303
-116.742
-116.180
-115.615
-115.048
-114.480
-113.909
-113.337
-112.763
-112.187
-111.609
-111.029
-110.447
-109.863
-109.278
-108.690
-108.101
-107.510
-106.918
-106.323
-105.727
-105.128
-104.529
-103.927
-103.323
-102.718
-102.111
-101.503
-100.893
-100.281
-99.667
-99.051
-98.434
-97.816
-97.195
-96.573
-95.950
-95.325
-94.698
-94.070
-93.440
-92.808
-92.175
-91.540
-90.904
-90.266
-89.627
-88.986
-88.344
-87.700
-87.055
-86.409
-85.760
-85.111
-84.460
-83.808
-83.154
-82.499
-81.842
-81.184
-80.525
-79.864
-79.202
-78.539
-77.874
-77.208
-76.541
-75.872
-75.202
-74.531
-73.859
-73.185
-72.510
-71.834
-71.157
-70.478
-69.799
-69.118
-68.436
-67.753
-67.069
-66.383
-65.697
-65.009
-64.320
-63.631
-62.940
-62.248
-61.555
-60.861
-60.166
-59.470
-58.773
-58.075
-57.376
-56.676
-55.975
-55.273
-54.570
-53.867
-53.162
-52.456
-51.750
-51.043
-50.335
-49.626
-48.916
-48.205
-47.494
-46.782
-46.069
-45.355
-44.640
-43.925
-43.209
-42.492
-41.775
-41.057
-40.338
-39.618
-38.898
-38.177
-37.456
-36.733
-36.011
-35.287
-34.563
-33.839
-33.114
-32.388
-31.662
-30.935
-30.208
-29.480
-28.752
-28.023
-27.294
-26.564
-25.834
-25.104
-24.373
-23.641
-22.909
-22.177
-21.445
-20.712
-19.979
-19.245
-18.511
-17.777
-17.042
-16.308
-15.572
-14.837
-14.102
-13.366
-12.630
-11.893
-11.157
-10.420
-9.683
-8.946
-8.209
-7.472
-6.735
-5.997
-5.260
-4.522
-3.784
-3.046
-2.308
-1.570
-0.832
-0.094
0.644
1.381
2.119
2.857
3.595
4.333
5.071
5.808
6.546
7.283
8.021
8.758
9.495
10.232
10.968
11.705
12.441
13.177
13.913
14.649
15.384
16.119
16.854
17.589
18.323
-179.276
-182.428
-178.146
-164.980
-141.652
-107.144
-60.786
-2.345
67.901
149.096
239.760
337.771
440.389
544.327
645.868
741.046
825.869
896.570
949.868
983.217
995.001
984.667
952.768
900.919
831.669
748.295
654.566
554.475
451.987
350.817
254.255
165.040
85.293
16.495
-40.499
-85.409
-118.470
-140.351
-152.071
-154.908
-150.310
48.734
49.444
50.153
50.862
51.569
52.276
52.981
53.686
54.390
55.093
55.795
56.496
57.197
57.896
58.594
59.291
59.988
60.683
61.377
62.071
62.763
63.454
64.144
64.833
65.521
66.208
66.893
67.578
68.261
68.944
69.625
70.305
70.983
71.661
72.337
73.012
73.686
74.359
75.030
75.701
99.179
102.861
106.852
111.169
115.828
120.847
126.239
132.018
138.192
144.770
151.756
159.151
166.950
175.148
183.733
192.686
201.988
211.611
221.524
231.689
242.063
252.601
263.249
273.952
284.649
295.277
305.770
316.059
326.074
335.746
345.005
353.781
362.009
369.625
376.570
382.788
388.231
392.856
396.626
399.513
401.496
402.563
402.709
401.939
400.265
397.707
394.295
390.065
385.059
379.327
372.923
365.907
358.342
350.295
341.835
333.030
323.952
314.670
305.252
295.765
286.271
276.832
267.503
258.337
249.380
240.675
232.258
224.163
216.415
209.036
202.042
195.447
189.256
183.473
178.097
173.124
168.546
164.354
160.534
157.073
153.955
151.161
148.674
126.392
126.916
127.439
127.959
128.477
128.992
129.506
130.017
130.527
131.034
131.539
132.041
132.542
133.040
133.536
134.030
134.521
135.010
135.497
135.982
136.464
136.944
137.422
137.898
138.371
138.842
139.310
139.776
140.240
140.702
141.161
141.617
142.072
142.524
142.973
143.420
143.865
144.307
144.747
145.185
145.620
146.052
146.482
146.910
147.335
147.758
148.178
148.596
149.011
149.424
149.834
150.242
150.647
151.050
151.450
151.847
152.242
152.635
153.024
153.412
153.797
154.179
154.558
154.935
155.309
155.681
156.050
156.417
156.781
157.142
157.501
157.856
158.210
158.560
158.908
159.254
159.596
159.936
160.273
160.608
160.940
161.269
161.595
161.919
162.240
162.558
162.874
163.187
163.497
163.804
164.109
164.410
164.710
165.006
165.299
165.590
165.878
166.163
166.445
166.725
167.002
167.276
167.547
167.815
168.081
168.343
168.603
168.860
169.114
169.366
169.614
169.860
170.102
170.342
170.579
170.814
171.045
171.273
171.499
171.722
171.941
172.158
172.372
172.583
172.792
172.997
173.199
173.399
173.595
173.789
173.980
174.167
174.352
174.534
174.713
174.889
175.063
175.233
175.400
175.564
175.726
175.884
176.039
176.192
176.341
176.488
176.632
176.772
176.910
177.044
177.176
177.305
177.431
177.553
177.673
177.790
177.904
178.015
178.122
178.227
178.329
178.428
178.524
178.616
178.706
178.793
178.877
178.958
179.036
179.110
179.182
179.251
179.317
179.379
179.439
179.496
179.549
179.600
179.648
179.692
179.734
179.773
179.808
179.841
179.870
179.897
179.920
179.941
179.958
179.973
179.984
179.992
179.998
180.000
179.999
179.995
179.989
179.979
179.966
179.950
179.931
179.909
179.884
179.857
179.826
179.792
179.755
179.715
179.671
179.625
179.576
179.524
179.469
179.411
179.350
179.286
179.218
179.148
179.075
178.999
178.919
178.837
178.752
178.664
178.572
178.478
178.381
178.281
178.177
178.071
177.962
177.850
177.734
177.616
177.495
177.371
177.244
177.114
176.980
176.844
176.705
176.563
176.418
176.270
176.119
175.965
175.809
175.649
175.486
175.320
175.152
174.980
174.806
174.628
174.448
174.264
174.078
173.889
173.697
173.502
173.304
173.103
172.899
172.692
172.483
172.270
172.055
171.837
171.616
171.391
171.165
170.935
170.702
170.466
170.228
169.987
169.743
169.496
169.246
168.993
168.738
168.479
168.218
167.954
167.687
167.418
167.145
166.870
166.592
166.311
166.027
165.741
165.451
165.159
164.865
164.567
164.267
163.963
163.658
163.349
163.038
162.723
162.407
162.087
161.765
161.440
161.112
160.782
160.448
160.113
159.774
159.433
159.089
158.742
158.393
158.041
157.687
157.329
156.970
156.607
156.242
155.874
155.504
155.131
154.755
154.377
153.996
153.613
153.227
152.838
152.447
152.054
151.657
151.259
150.857
150.454
150.047
149.638
149.227
148.813
148.396
147.978
147.556
147.132
146.706
146.277
-52.487
-56.807
-53.694
-41.700
-19.546
13.787
58.967
116.228
185.292
265.304
354.781
451.605
553.034
655.780
756.128
850.111
933.737
1003.239
1055.336
1087.483
1098.063
1086.523
1053.416
1000.359
929.897
845.311
750.368
649.061
545.355
442.966
345.183
254.746
173.776
103.753
45.533
-0.605
-34.896
-58.008
-70.960
-75.030
-71.667
126.141
125.613
125.083
124.552
124.018
123.482
122.944
122.404
121.862
121.318
120.771
120.223
119.673
119.121
118.566
118.010
117.452
116.892
116.330
115.765
115.199
114.631
114.061
113.490
112.916
112.340
111.763
111.183
110.602
110.019
109.434
108.847
108.258
107.668
107.075
106.481
105.885
105.288
104.688
104.087
126.293
128.704
131.422
134.465
137.851
141.596
145.714
150.218
155.117
160.420
166.131
172.249
178.773
185.695
193.003
200.680
208.706
217.052
225.688
234.576
243.674
252.934
262.305
271.731
281.152
290.503
299.719
308.731
317.470
325.866
333.848
341.348
348.300
354.641
360.310
365.253
369.422
372.772
375.268
376.881
377.591
377.385
376.259
374.216
371.270
367.442
362.759
357.259
350.983
343.982
336.310
328.026
319.194
309.881
300.155
290.085
279.743
269.197
258.516
247.766
237.012
226.312
215.724
205.298
195.084
185.122
175.449
166.099
157.096
148.464
140.219
132.372
124.931
117.900
111.276
105.056
99.233
93.797
88.734
84.031
79.672
75.639
71.914
48.394
47.683
46.971
46.258
45.545
44.830
44.115
43.400
42.683
41.966
41.248
40.529
39.810
39.090
38.369
37.648
36.926
36.203
35.480
34.756
34.032
33.307
32.581
31.855
31.129
30.401
29.674
28.946
28.217
27.488
26.758
26.028
25.298
24.567
23.836
23.104
22.372
21.640
20.907
20.174
19.440
18.706
17.972
17.238
16.503
15.768
15.033
14.297
13.561
12.825
12.089
11.353
10.616
9.879
9.143
8.405
7.668
6.931
6.193
5.456
4.718
3.980
3.242
2.505
1.767
1.029
0.291
-0.447
-1.185
-1.923
-2.661
-3.399
-4.137
-4.874
-5.612
-6.350
-7.087
-7.825
-8.562
-9.299
-10.036
-10.772
-11.509
-12.245
-12.982
-13.717
-14.453
-15.189
-15.924
-16.659
-17.394
-18.128
-18.862
-19.596
-20.329
-21.062
-21.795
-22.527
-23.259
-23.991
-24.722
-25.453
-26.183
-26.913
-27.643
-28.372
-29.100
-29.828
-30.556
-31.283
-32.009
-32.735
-33.460
-34.185
-34.909
-35.633
-36.356
-37.079
-37.801
-38.522
-39.242
-39.962
-40.681
-41.400
-42.118
-42.835
-43.551
-44.267
-44.982
-45.696
-46.410
-47.122
-47.834
-48.545
-49.255
-49.965
-50.673
-51.381
-52.088
-52.794
-53.499
-54.203
-54.906
-55.609
-56.310
-57.010
-57.710
-58.409
-59.106
-59.803
-60.498
-61.193
-61.886
-62.579
-63.270
-63.960
-64.650
-65.338
-66.025
-66.711
-67.396
-68.080
-68.762
-69.444
-70.124
-70.803
-71.481
-72.157
-72.833
-73.507
-74.180
-74.852
-75.523
-76.192
-76.860
-77.526
-78.192
-78.856
-79.519
-80.180
-80.840
-81.499
-82.156
-82.812
-83.466
-84.120
-84.771
-85.422
-86.070
-86.718
-87.364
-88.008
-88.651
-89.293
-89.933
-90.571
-91.208
-91.844
-92.478
-93.110
-93.741
-94.370
-94.998
-95.624
-96.248
-96.871
-97.492
-98.112
-98.730
-99.346
-99.960
-100.573
-101.184
-101.794
-102.402
-103.008
-103.612
-104.215
-104.816
-105.415
-106.012
-106.607
-107.201
-107.793
-108.383
-108.971
-109.558
-110.142
-110.725
-111.306
-111.885
-112.462
-113.038
-113.611
-114.182
-114.752
-115.320
-115.885
-116.449
-117.011
-117.570
-118.128
-118.684
-119.238
-119.790
-120.340
-120.887
-121.433
-121.977
-122.519
-123.058
-123.596
-124.131
-124.665
-125.196
-125.725
-324.585
-328.996
-325.970
-314.058
-291.981
-258.721
-213.610
-156.412
-87.407
-7.450
81.978
178.756
280.144
382.854
483.170
577.126
660.730
730.213
782.298
814.436
825.011
813.472
780.370
727.322
656.875
572.308
477.388
376.109
272.436
170.084
72.343
-18.047
-98.967
-168.934
-227.094
-273.168
-307.389
-330.427
-343.301
-347.288
-343.837
-145.937
-146.368
-146.796
-147.222
-147.646
-148.067
-148.485
-148.901
-149.314
-149.725
-150.133
-150.539
-150.943
-151.343
-151.742
-152.137
-152.530
-152.921
-153.309
-153.694
-154.077
-154.457
-154.835
-155.210
-155.583
-155.952
-156.320
-156.684
-157.046
-157.405
-157.762
-158.116
-158.467
-158.816
-159.162
-159.505
-159.846
-160.184
-160.519
-160.852
-138.373
-135.685
-132.685
-129.355
-125.678
-121.638
-117.220
-112.412
-107.204
-101.588
-95.560
-89.120
-82.270
-75.018
-67.375
-59.358
-50.989
-42.295
-33.306
-24.062
-14.603
-4.977
4.764
14.564
24.363
34.097
43.700
53.104
62.238
71.034
79.420
87.329
94.694
101.451
107.542
112.911
117.509
121.293
124.227
126.283
127.440
127.684
127.013
125.430
122.947
119.586
115.376
110.351
104.556
98.039
90.855
83.064
74.728
65.916
56.694
47.134
37.304
27.275
17.116
6.891
-3.334
-13.500
-23.552
-33.435
-43.105
-52.518
-61.637
-70.430
-78.871
-86.938
-94.614
-101.887
-108.751
-115.202
-121.240
-126.871
-132.102
-136.942
-141.404
-145.502
-149.253
-152.674
-155.783
-178.683
-178.770
-178.855
-178.937
-179.015
-179.091
-179.163
-179.233
-179.299
-179.363
-179.423
-179.481
-179.535
-179.587
-179.635
-179.681
-179.723
-179.763
-179.799
-179.832
-179.863
-179.890
-179.914
-179.936
-179.954
-179.969
-179.981
-179.990
-179.996
-180.000
-180.000
-179.997
-179.991
-179.982
-179.970
-179.955
-179.937
-179.916
-179.891
-179.864
-179.834
-179.801
-179.765
-179.725
-179.683
-179.638
-179.590
-179.538
-179.484
-179.427
-179.366
-179.303
-179.237
-179.167
-179.095
-179.019
-178.941
-178.859
-178.775
-178.687
-178.597
-178.504
-178.407
-178.308
-178.205
-178.100
-177.991
-177.880
-177.765
-177.648
-177.528
-177.404
-177.278
-177.149
-177.016
-176.881
-176.743
-176.601
-176.457
-176.310
-176.160
-176.007
-175.851
-175.692
-175.530
-175.365
-175.197
-175.026
-174.852
-174.676
-174.496
-174.313
-174.128
-173.939
-173.748
-173.554
-173.357
-173.157
-172.954
-172.748
-172.539
-172.327
-172.113
-171.895
-171.675
-171.451
-171.225
-170.996
-170.764
-170.529
-170.292
-170.051
-169.808
-169.562
-169.313
-169.061
-168.806
-168.548
-168.288
-168.025
-167.758
-167.490
-167.218
-166.943
-166.666
-166.386
-166.103
-165.817
-165.529
-165.237
-164.943
-164.646
-164.347
-164.044
-163.739
-163.431
-163.121
-162.807
-162.491
-162.172
-161.851
-161.526
-161.199
-160.870
-160.537
-160.202
-159.864
-159.524
-159.181
-158.835
-158.486
-158.135
-157.781
-157.425
-157.066
-156.704
-156.339
-354.305
-357.822
-353.901
-341.093
-318.120
-283.964
-237.955
-179.861
-109.958
-29.103
61.224
158.900
261.188
364.797
466.013
560.869
645.373
715.757
768.742
801.781
813.258
802.620
770.420
718.274
648.729
565.064
471.046
370.669
267.899
166.450
69.611
-19.877
-99.894
-168.959
-226.216
-271.387
-304.705
-326.841
-338.812
-341.897
-337.544
-138.742
-138.271
-137.797
-137.321
-136.843
-136.362
-135.879
-135.394
-134.907
-134.417
-133.925
-133.431
-132.935
-132.436
-131.935
-131.432
-130.926
-130.419
-129.909
-129.397
-128.883
-128.367
-127.849
-127.328
-126.805
-126.280
-125.754
-125.224
-124.693
-124.160
-123.625
-123.087
-122.548
-122.006
-121.463
-120.917
-120.369
-119.820
-119.268
-118.714
-95.349
-91.776
-87.892
-83.679
-79.120
-74.198
-68.899
-63.211
-57.123
-50.629
-43.723
-36.406
-28.680
-20.553
-12.036
-3.146
6.095
15.661
25.519
35.633
45.961
56.454
67.061
77.726
88.389
98.987
109.452
119.716
129.710
139.364
148.608
157.374
165.594
173.205
180.148
186.369
191.817
196.450
200.232
203.135
205.136
206.225
206.396
205.654
204.012
201.489
198.116
193.927
188.966
183.282
176.929
169.968
162.462
154.476
146.081
137.344
128.337
119.129
109.789
100.383
90.974
81.622
72.385
63.312
54.453
45.848
37.536
29.548
21.910
14.645
7.769
1.294
-4.774
-10.430
-15.675
-20.515
-24.956
-29.008
-32.684
-35.999
-38.968
-41.609
-43.939
-66.062
-65.375
-64.687
-63.998
-63.307
-62.616
-61.924
-61.230
-60.536
-59.840
-59.144
-58.446
-57.748
-57.048
-56.348
-55.647
-54.944
-54.241
-53.537
-52.832
-52.126
-51.419
-50.711
-50.003
-49.294
-48.583
-47.872
-47.161
-46.448
-45.735
-45.021
-44.306
-43.590
-42.874
-42.157
-41.439
-40.720
-40.001
-39.281
-38.561
-37.839
-37.118
-36.395
-35.672
-34.949
-34.224
-33.500
-32.774
-32.048
-31.322
-30.595
-29.867
-29.139
-28.411
-27.682
-26.952
-26.223
-25.492
-24.762
-24.030
-23.299
-22.567
-21.834
-21.102
-20.369
-19.635
-18.902
-18.168
-17.433
-16.699
-15.964
-15.228
-14.493
-13.757
-13.021
-12.285
-11.549
-10.812
-10.075
-9.339
-8.602
-7.864
-7.127
-6.390
-5.652
-4.914
-4.177
-3.439
-2.701
-1.963
-1.225
-0.487
0.251
0.989
1.727
2.465
3.203
3.940
4.678
5.416
6.154
6.891
7.628
8.366
9.103
9.840
10.576
11.313
12.050
12.786
13.522
14.258
14.993
15.728
16.463
17.198
17.933
18.667
19.401
20.134
20.867
21.600
22.333
23.065
23.796
24.528
25.258
25.989
26.719
27.449
28.178
28.906
29.634
30.362
31.089
31.816
32.542
33.268
33.992
34.717
35.441
36.164
36.887
37.609
38.330
39.051
39.771
40.490
41.209
41.927
42.644
43.361
44.077
44.792
45.506
46.220
46.933
47.645
48.356
49.066
49.776
50.485
51.193
51.900
52.606
53.311
54.016
54.719
55.422
56.124
56.824
57.524
58.223
58.921
59.617
60.313
61.008
61.702
62.395
63.086
63.777
64.466
65.155
65.842
66.529
67.214
67.898
68.581
69.262
69.943
70.622
71.301
71.978
72.653
73.328
74.001
74.673
75.344
76.014
76.682
77.349
78.015
78.679
79.342
80.004
80.665
81.324
81.981
82.638
83.292
83.946
84.598
85.249
85.898
86.546
87.192
87.837
88.480
89.122
89.763
90.402
91.039
91.675
92.309
92.942
93.573
94.203
94.831
95.457
96.082
96.705
97.327
97.947
98.565
99.182
99.797
100.410
101.022
101.632
102.240
102.847
103.452
104.055
104.656
105.255
105.853
106.449
107.043
107.636
108.226
108.815
109.402
109.987
110.570
111.152
111.731
112.309
112.885
113.459
114.031
114.601
115.169
115.735
116.299
116.861
117.422
117.980
118.536
119.091
119.643
120.194
120.742
121.288
121.832
122.375
122.915
123.453
123.989
124.523
125.055
125.584
126.112
126.638
127.161
127.682
128.201
128.718
129.233
129.746
130.256
130.764
131.270
131.774
132.276
132.775
133.272
133.767
134.260
134.750
135.238
135.724
136.208
136.689
137.168
137.645
138.119
138.591
139.061
139.529
139.994
140.456
140.917
141.375
141.830
142.283
142.734
143.183
143.629
144.072
144.513
144.952
145.389
145.822
146.254
146.683
147.109
147.533
147.955
148.374
148.790
149.205
149.616
150.025
150.432
150.836
151.237
151.636
152.032
152.426
152.817
153.206
153.592
153.976
-43.976
-47.484
-43.560
-30.754
-7.788
26.356
72.347
130.419
200.295
281.116
371.404
469.038
571.276
674.832
775.988
870.780
955.215
1025.524
1078.429
1111.383
1122.770
1112.036
1079.735
1027.483
957.827
874.045
779.906
679.403
576.500
474.914
377.933
288.297
208.128
138.905
81.485
36.146
2.654
-19.661
-31.815
-35.089
-30.930
167.673
167.940
168.204
168.465
168.724
168.979
169.232
169.482
169.729
169.974
170.215
170.454
170.689
170.922
171.152
171.379
171.603
171.825
172.043
172.259
172.471
172.681
172.888
173.092
173.293
173.491
173.686
173.879
174.068
174.254
174.438
174.618
174.796
174.971
175.143
175.311
175.477
175.640
175.800
175.957
198.920
202.087
205.559
209.356
213.494
217.989
222.857
228.109
233.755
239.804
246.259
253.120
260.386
268.047
276.094
284.509
293.270
302.351
311.720
321.340
331.168
341.157
351.255
361.407
371.552
381.626
391.563
401.295
410.752
419.864
428.561
436.775
444.439
451.489
457.867
463.517
468.391
472.444
475.642
477.956
479.364
479.855
479.424
478.074
475.820
472.681
468.687
463.873
458.282
451.963
444.972
437.367
429.212
420.574
411.522
402.124
392.451
382.573
372.558
362.472
352.380
342.340
332.410
322.641
313.081
303.771
294.749
286.046
277.690
269.703
262.100
254.893
248.090
241.694
235.705
230.117
224.923
220.114
215.677
211.598
207.860
204.446
201.338
178.433
178.334
178.233
178.128
178.020
177.910
177.796
177.680
177.560
177.437
177.312
177.183
177.052
176.917
176.780
176.639
176.496
176.349
176.200
176.048
175.892
175.734
175.573
175.409
175.242
175.072
174.899
174.723
174.544
174.362
174.178
173.990
173.799
173.606
173.409
173.210
173.008
172.803
172.595
172.384
172.170
171.953
171.734
171.511
171.286
171.057
170.826
170.592
170.355
170.116
169.873
169.627
169.379
169.128
168.874
168.617
168.357
168.095
167.830
167.561
167.290
167.017
166.740
166.461
166.178
165.893
165.606
165.315
165.022
164.726
164.427
164.125
163.821
163.513
163.204
162.891
162.576
162.257
161.937
161.613
161.287
160.958
160.626
160.292
159.954
159.615
159.272
158.927
158.579
158.229
157.876
157.520
157.161
156.800
156.437
156.070
155.701
155.330
154.955
154.579
154.199
153.817
153.433
153.045
152.656
152.263
151.869
151.471
151.071
150.669
150.264
149.856
149.446
149.033
148.618
148.201
147.781
147.358
146.933
146.506
146.076
145.643
145.208
144.771
144.331
143.889
143.444
142.997
142.548
142.096
141.642
141.185
140.726
140.265
139.801
139.335
138.867
138.396
137.923
137.448
136.970
136.490
136.008
135.523
135.037
134.548
134.056
133.563
133.067
132.569
132.068
131.566
131.061
130.554
130.045
129.534
129.020
128.505
127.987
127.467
126.945
126.420
125.894
125.365
124.835
124.302
123.767
123.230
122.691
122.150
121.607
121.062
120.515
119.966
119.415
118.862
118.306
117.749
-81.143
-85.590
-82.605
-70.737
-48.708
-15.501
29.554
86.691
155.631
235.519
324.874
421.575
522.882
625.507
725.733
819.596
903.103
972.485
1024.463
1056.491
1066.954
1055.296
1022.073
968.899
898.322
813.621
718.563
617.141
513.322
410.820
312.925
222.376
141.294
71.160
12.830
-33.418
-67.818
-91.039
-104.099
-108.277
-105.021
92.680
92.047
91.412
90.775
90.137
89.498
88.857
88.214
87.570
86.925
86.278
85.629
84.980
84.328
83.676
83.022
82.366
81.709
81.051
80.391
79.730
79.068
78.404
77.739
77.073
76.406
75.737
75.067
74.395
73.723
73.049
72.374
71.697
71.020
70.341
69.661
68.980
68.298
67.615
66.930
89.054
91.382
94.019
96.981
100.287
103.952
107.992
112.417
117.239
122.465
128.099
134.142
140.591
147.438
154.672
162.277
170.229
178.504
187.069
195.886
204.914
214.105
223.408
232.766
242.119
251.404
260.554
269.501
278.175
286.506
294.425
301.863
308.753
315.032
320.641
325.524
329.633
332.924
335.363
336.919
337.572
337.310
336.128
334.031
331.031
327.149
322.414
316.861
310.535
303.483
295.761
287.428
278.548
269.187
259.413
249.297
238.909
228.318
217.593
206.799
196.002
185.260
174.629
164.163
153.908
143.906
134.195
124.806
115.767
107.098
98.816
90.934
83.459
76.393
69.736
63.483
57.628
52.161
47.067
42.335
37.946
33.885
30.132
6.586
5.848
5.111
4.373
3.635
2.897
2.159
1.421
0.683
-0.055
-0.793
-1.531
-2.268
-3.006
-3.744
-4.482
-5.220
-5.957
-6.695
-7.432
-8.170
-8.907
-9.644
-10.381
-11.117
-11.854
-12.590
-13.326
-14.062
-14.797
-15.533
-16.268
-17.003
-17.737
-18.471
-19.205
-19.939
-20.672
-21.405
-22.138
-22.870
-23.602
-24.333
-25.064
-25.795
-26.525
-27.255
-27.984
-28.713
-29.441
-30.169
-30.896
-31.623
-32.349
-33.075
-33.800
-34.524
-35.248
-35.972
-36.694
-37.417
-38.138
-38.859
-39.579
-40.299
-41.018
-41.736
-42.453
-43.170
-43.886
-44.602
-45.316
-46.030
-46.743
-47.455
-48.167
-48.878
-49.587
-50.296
-51.005
-51.712
-52.418
-53.124
-53.828
-54.532
-55.235
-55.937
-56.638
-57.338
-58.037
-58.735
-59.432
-60.128
-60.823
-61.517
-62.210
-62.902
-63.593
-64.283
-64.972
-65.660
-66.346
-67.032
-67.716
-68.399
-69.081
-69.762
-70.442
-71.120
-71.798
-72.474
-73.149
-73.822
-74.495
-75.166
-75.836
-76.505
-77.172
-77.838
-78.503
-79.166
-79.828
-80.489
-81.148
-81.806
-82.463
-83.118
-83.772
-84.425
-85.076
-85.725
-86.374
-87.020
-87.666
-88.309
-88.952
-89.593
-90.232
-90.870
-91.506
-92.141
-92.774
-93.405
-94.036
-94.664
-95.291
-95.916
-96.540
-97.162
-97.782
-98.401
-99.018
-99.634
-100.247
-100.860
-101.470
-102.079
-102.686
-103.291
-103.894
-104.496
-105.096
-105.694
-106.291
-106.885
-107.478
-108.069
-108.659
-109.246
-109.832
-110.415
-110.997
-111.577
-112.156
-112.732
-113.306
-113.879
-114.449
-115.018
-115.585
-116.149
-116.712
-117.273
-117.832
-118.389
-118.944
-119.496
-120.047
-120.596
-121.143
-121.688
-122.231
-122.771
-123.310
-123.847
-124.381
-124.913
-125.444
-125.972
-126.498
-127.022
-127.544
-128.063
-128.581
-129.096
-129.609
-130.121
-130.629
-131.136
-131.640
-132.143
-132.643
-133.140
-133.636
-134.129
-134.620
-135.109
-135.595
-136.080
-136.561
-137.041
-137.518
-137.993
-138.466
-138.936
-139.404
-139.870
-140.333
-140.794
-141.253
-141.709
-142.163
-142.615
-143.064
-143.510
-143.955
-144.396
-144.836
-145.273
-145.707
-146.139
-146.569
-146.996
-147.421
-147.843
-148.263
-148.680
-149.095
-149.507
-149.917
-150.324
-150.728
-151.131
-151.530
-151.927
-152.322
-152.714
-153.103
-153.490
-153.874
-154.256
-154.635
-155.011
-155.385
-155.756
-156.125
-156.491
-156.854
-157.215
-157.573
-157.928
-158.281
-158.631
-158.978
-159.323
-159.665
-160.005
-160.341
-160.675
-161.007
-161.335
-161.661
-161.984
-162.305
-162.622
-162.937
-163.250
-163.559
-163.866
-164.170
-164.471
-164.770
-165.065
-165.358
-165.648
-165.936
-166.220
-166.502
-166.781
-167.057
-167.331
-167.601
-167.869
-168.134
-168.396
-168.655
-168.912
-169.165
-169.416
-169.664
-169.909
-170.151
-170.390
-170.627
-170.861
-171.091
-171.319
-171.544
-171.766
-171.985
-172.202
-172.415
-172.626
-172.833
-173.038
-173.240
-173.439
-173.635
-173.828
-174.018
-174.205
-174.389
-174.571
-174.749
-174.925
-175.097
-175.267
-175.433
-175.597
-175.758
-175.916
-176.070
-176.222
-176.371
-176.517
-374.993
-379.019
-375.608
-363.309
-340.844
-307.196
-261.696
-204.109
-134.713
-54.364
35.456
132.627
234.409
337.514
438.225
532.577
616.578
686.459
738.942
771.478
782.454
771.315
738.615
685.969
615.924
531.760
437.244
336.370
233.102
131.157
33.822
-56.161
-136.673
-206.232
-263.982
-309.646
-343.457
-366.084
-378.546
-382.121
-378.258
-179.944
-179.961
-179.975
-179.986
-179.994
-179.998
-180.000
-179.999
-179.994
-179.987
-179.977
-179.963
-179.947
-179.927
-179.905
-179.879
-179.851
-179.819
-179.784
-179.747
-179.706
-179.662
-179.616
-179.566
-179.513
-179.458
-179.399
-179.337
-179.272
-179.204
-179.134
-179.060
-178.983
-178.903
-178.820
-178.734
-178.646
-178.554
-178.459
-178.361
-155.451
-152.332
-148.901
-145.139
-141.031
-136.558
-131.708
-126.468
-120.827
-114.778
-108.317
-101.443
-94.159
-86.473
-78.396
-69.945
-61.142
-52.013
-42.590
-32.910
-23.016
-12.955
-2.778
7.457
17.691
27.861
37.900
47.740
57.310
66.542
75.364
83.709
91.511
98.704
105.231
111.037
116.071
120.292
123.663
126.155
127.748
128.430
128.195
127.048
125.002
122.077
118.303
113.715
108.356
102.275
95.527
88.172
80.273
71.896
63.110
53.986
44.592
34.998
25.274
15.485
5.694
-4.037
-13.654
-23.103
-32.338
-41.317
-50.002
-58.361
-66.368
-74.002
-81.245
-88.085
-94.516
-100.535
-106.141
-111.340
-116.138
-120.547
-124.578
-128.245
-131.566
-134.557
-137.235
-159.705
-159.364
-159.019
-158.672
-158.322
-157.970
-157.615
-157.257
-156.897
-156.534
-156.168
-155.800
-155.429
-155.055
-154.679
-154.300
-153.919
-153.535
-153.149
-152.760
-152.368
-151.974
-151.577
-151.178
-150.776
-150.372
-149.965
-149.555
-149.143
-148.729
-148.312
-147.893
-147.471
-147.046
-146.619
-146.190
-145.758
-145.324
-144.887
-144.448
-144.007
-143.563
-143.116
-142.668
-142.217
-141.763
-141.307
-140.849
-140.388
-139.925
-139.460
-138.992
-138.522
-138.049
-137.575
-137.098
-136.618
-136.137
-135.653
-135.166
-134.678
-134.187
-133.694
-133.199
-132.701
-132.202
-131.700
-131.196
-130.689
-130.181
-129.670
-129.157
-128.642
-128.125
-127.605
-127.084
-126.560
-126.034
-125.506
-124.976
-124.444
-123.910
-123.373
-122.835
-122.295
-121.752
-121.207
-120.661
-120.112
-119.562
-119.009
-118.454
-117.898
-117.339
-116.778
-116.216
-115.651
-115.085
-114.516
-113.946
-113.374
-112.800
-112.224
-111.646
-111.066
-110.484
-109.901
-109.315
-108.728
-108.139
-107.548
-106.956
-106.361
-105.765
-105.167
-104.567
-103.965
-103.362
-102.757
-102.150
-101.542
-100.932
-100.320
-99.706
-99.091
-98.474
-97.855
-97.235
-96.613
-95.990
-95.365
-94.738
-94.110
-93.480
-92.848
-92.215
-91.581
-90.945
-90.307
-89.668
-89.027
-88.385
-87.742
-87.097
-86.450
-85.802
-85.153
-84.502
-83.849
-83.196
-82.541
-81.884
-81.226
-80.567
-79.906
-79.244
-78.581
-77.916
-77.251
-76.583
-75.915
-75.245
-74.574
-73.902
-73.228
-72.553
-71.877
-71.200
-70.522
-69.842
-69.162
-68.480
-67.797
-67.112
-66.427
-65.741
-65.053
-64.364
-63.675
-62.984
-62.292
-61.599
-60.905
-60.210
-59.514
-58.817
-58.119
-57.420
-56.721
-56.020
-55.318
-54.615
-53.912
-53.207
-52.502
-51.795
-51.088
-50.380
-49.671
-48.961
-48.251
-47.539
-46.827
-46.114
-45.401
-44.686
-43.971
-43.255
-42.538
-41.821
-41.103
-40.384
-39.664
-38.944
-38.223
-37.502
-36.780
-36.057
-35.334
-34.610
-33.885
-33.160
-32.435
-31.708
-30.982
-30.254
-29.527
-28.798
-28.070
-27.341
-26.611
-25.881
-25.150
-24.419
-23.688
-22.956
-22.224
-21.492
-20.759
-20.026
-19.292
-18.558
-17.824
-17.089
-16.355
-15.620
-14.884
-14.149
-13.413
-12.677
-11.941
-11.204
-10.467
-9.731
-8.994
-8.257
-7.519
-6.782
-6.044
-5.307
-4.569
-3.831
-3.093
-2.356
-1.618
-0.880
-0.142
0.596
1.334
2.072
2.810
3.548
4.286
5.023
5.761
6.499
7.236
7.973
8.711
9.448
10.185
10.921
11.658
12.394
13.130
13.866
14.602
15.337
16.072
16.807
17.542
18.276
19.010
19.744
20.477
21.210
21.943
22.675
23.407
24.139
24.870
25.600
26.331
27.060
-170.543
-173.701
-169.423
-156.262
-132.940
-98.437
-52.085
6.351
76.591
157.780
248.438
346.443
449.055
552.986
654.520
749.692
834.508
905.201
958.492
991.834
1003.610
993.268
961.362
909.505
840.247
756.865
663.128
563.028
460.531
359.352
262.781
173.557
93.801
24.993
-32.010
-76.930
-110.001
-131.892
-143.622
-146.469
-141.882
57.152
57.851
58.549
59.247
59.943
60.639
61.333
62.026
62.718
63.410
64.100
64.789
65.477
66.164
66.849
67.534
68.218
68.900
69.581
70.261
70.940
71.618
72.294
72.969
73.643
74.316
74.988
75.658
76.327
76.995
77.661
78.326
78.990
79.652
80.313
80.973
81.632
82.289
82.944
83.598
107.060
110.727
114.701
119.001
123.644
128.647
134.022
139.784
145.941
152.502
159.470
166.847
174.629
182.810
191.376
200.312
209.595
219.200
229.094
239.241
249.597
260.115
270.745
281.429
292.107
302.716
313.189
323.458
333.454
343.106
352.345
361.101
369.309
376.904
383.829
390.027
395.449
400.053
403.802
406.668
408.631
409.676
409.801
409.009
407.313
404.734
401.300
397.048
392.020
386.265
379.839
372.801
365.214
357.144
348.661
339.834
330.733
321.427
311.986
302.475
292.959
283.496
274.143
264.953
255.972
247.243
238.802
230.683
222.910
215.507
208.489
201.869
195.653
189.845
184.444
179.446
174.843
170.626
166.781
163.294
160.150
157.331
154.818
132.510
133.008
133.504
133.998
134.490
134.979
135.466
135.951
136.434
136.914
137.392
137.867
138.341
138.812
139.280
139.747
140.210
140.672
141.131
141.588
142.043
142.495
142.944
143.392
143.837
144.279
144.719
145.157
145.592
146.025
146.455
146.883
147.308
147.731
148.151
148.569
148.985
149.397
149.808
150.216
150.621
151.024
151.424
151.822
152.217
152.610
153.000
153.387
153.772
154.154
154.534
154.911
155.286
155.658
156.027
156.393
156.758
157.119
157.478
157.834
158.187
158.538
158.886
159.232
159.574
159.915
160.252
160.587
160.919
161.248
161.575
161.899
162.220
162.538
162.854
163.167
163.477
163.785
164.089
164.391
164.690
164.987
165.281
165.571
165.860
166.145
166.427
166.707
166.984
167.258
167.530
167.798
168.064
168.327
168.587
168.844
169.098
169.350
169.598
169.844
170.087
170.327
170.564
170.799
171.030
171.259
171.485
171.707
171.927
172.144
172.359
172.570
172.778
172.984
173.186
173.386
173.583
173.777
173.968
174.156
174.341
174.523
174.702
174.878
175.052
175.222
175.389
175.554
175.715
175.874
176.030
176.182
176.332
176.479
176.622
176.763
176.901
177.036
177.168
177.297
177.423
177.546
177.666
177.783
177.897
178.008
178.116
178.221
178.323
178.422
178.518
178.611
178.701
178.788
178.872
178.953
179.031
179.106
179.178
179.247
179.312
179.375
179.435
179.492
179.546
179.597
179.645
179.690
179.731
179.770
179.806
179.839
179.868
179.895
179.919
179.939
179.957
179.972
179.983
179.992
179.997
180.000
179.999
179.996
179.989
179.980
179.967
179.951
179.933
179.911
-18.447
-22.361
-18.843
-6.444
16.115
49.851
95.434
153.098
222.564
302.976
392.855
490.078
591.907
695.051
795.797
890.177
974.200
1044.098
1096.590
1129.131
1140.105
1128.958
1096.244
1043.578
973.508
889.312
794.758
693.840
590.522
488.520
391.124
301.073
220.487
150.848
93.012
47.256
13.347
-9.384
-21.956
-25.647
-21.905
176.280
176.129
175.975
175.819
175.659
175.497
175.331
175.163
174.991
174.817
174.640
174.459
174.276
174.090
173.901
173.709
173.514
173.317
173.116
172.912
172.706
172.496
172.284
172.069
171.851
171.630
171.406
171.179
170.950
170.717
170.482
170.243
170.002
169.758
169.512
169.262
169.009
168.754
168.496
168.235
190.780
193.529
196.583
199.963
203.683
207.762
212.213
217.048
222.278
227.910
233.948
240.394
247.243
254.490
262.121
270.121
278.467
287.134
296.088
305.294
314.708
324.283
333.969
343.707
353.439
363.101
372.626
381.946
390.992
399.693
407.979
415.783
423.036
429.677
435.646
440.887
445.352
448.998
451.788
453.694
454.695
454.779
453.942
452.187
449.527
445.984
441.585
436.367
430.372
423.651
416.257
408.250
399.694
390.655
381.202
371.404
361.331
351.054
340.641
330.158
319.668
309.231
298.905
288.740
278.784
269.080
259.664
250.568
241.819
233.439
225.445
217.847
210.654
203.868
197.490
191.513
185.932
180.736
175.912
171.447
167.324
163.525
160.034
136.746
136.265
135.782
135.296
134.808
134.318
133.826
133.331
132.834
132.335
131.833
131.330
130.824
130.316
129.806
129.294
128.779
128.262
127.744
127.223
126.699
126.174
125.647
125.117
124.586
124.052
123.516
122.978
122.439
121.897
121.353
120.806
120.258
119.708
119.156
118.602
118.046
117.488
116.928
116.366
115.802
115.236
114.668
114.098
113.526
112.953
112.377
111.800
111.220
110.639
110.056
109.471
108.884
108.296
107.706
107.113
106.519
105.924
105.326
104.727
104.126
103.523
102.918
102.312
101.704
101.094
100.483
99.870
99.255
98.638
98.020
97.400
96.779
96.156
95.531
94.905
94.277
93.648
93.017
92.384
91.750
91.114
90.477
89.838
89.198
88.556
87.913
87.268
86.622
85.975
85.325
84.675
84.023
83.370
82.715
82.059
81.401
80.742
80.082
79.421
78.758
78.093
77.428
76.761
76.093
75.423
74.753
74.081
73.408
72.733
72.057
71.381
70.702
70.023
69.343
68.661
67.978
67.295
66.610
65.923
65.236
64.548
63.858
63.168
62.476
61.784
61.090
60.395
59.700
59.003
58.305
57.607
56.907
56.206
55.505
54.802
54.099
53.395
52.689
51.983
51.276
50.568
49.860
49.150
48.440
47.729
47.017
46.304
45.590
44.876
44.161
43.445
42.729
42.012
41.294
40.575
39.856
39.136
38.415
37.694
-161.361
-165.970
-163.144
-151.435
-129.564
-96.513
-51.613
5.371
74.159
153.897
243.102
339.656
440.817
543.296
643.379
737.100
820.465
889.708
941.548
973.440
983.767
971.975
938.619
885.314
814.608
729.778
634.593
533.046
429.103
326.478
228.462
137.793
56.593
-13.658
-72.104
-118.466
-152.979
-176.311
-189.481
-193.767
-190.618
6.978
6.241
5.503
4.765
4.028
3.290
2.552
1.814
1.076
0.338
-0.400
-1.138
-1.876
-2.614
-3.352
-4.090
-4.827
-5.565
-6.303
-7.040
-7.777
-8.515
-9.252
-9.989
-10.725
-11.462
-12.198
-12.934
-13.670
-14.406
-15.142
-15.877
-16.612
-17.346
-18.081
-18.815
-19.549
-20.282
-21.015
-21.748
0.329
2.612
5.204
8.125
11.390
15.016
19.017
23.407
28.194
33.386
38.989
45.001
51.421
58.241
65.450
73.030
80.959
89.213
97.758
106.557
115.568
124.744
134.033
143.378
152.720
161.996
171.138
180.079
188.748
197.076
204.993
212.431
219.322
225.604
231.217
236.106
240.222
243.522
245.971
247.538
248.205
247.957
246.792
244.713
241.732
237.871
233.158
227.629
221.328
214.303
206.609
198.306
189.457
180.128
170.389
160.309
149.958
139.405
128.720
117.969
107.214
96.517
85.933
75.514
65.309
55.357
45.698
36.363
27.379
18.766
10.543
2.721
-4.694
-11.697
-18.290
-24.477
-30.265
-35.665
-40.688
-45.349
-49.665
-53.652
-57.329
-80.798
-81.457
-82.114
-82.770
-83.425
-84.078
-84.730
-85.380
-86.029
-86.676
-87.323
-87.967
-88.610
-89.252
-89.892
-90.531
-91.168
-91.803
-92.437
-93.070
-93.701
-94.330
-94.958
-95.584
-96.208
-96.831
-97.452
-98.072
-98.690
-99.306
-99.921
-100.534
-101.145
-101.755
-102.363
-102.969
-103.573
-104.176
-104.777
-105.376
-105.974
-106.569
-107.163
-107.755
-108.345
-108.934
-109.520
-110.105
-110.688
-111.269
-111.848
-112.425
-113.001
-113.574
-114.146
-114.716
-115.283
-115.849
-116.413
-116.975
-117.535
-118.093
-118.649
-119.203
-119.755
-120.304
-120.852
-121.398
-121.942
-122.484
-123.024
-123.561
-124.097
-124.630
-125.162
-125.691
-126.218
-126.743
-127.266
-127.787
-128.306
-128.822
-129.337
-129.849
-130.359
-130.867
-131.372
-131.876
-132.377
-132.876
-133.372
-133.867
-134.359
-134.849
-135.337
-135.822
-136.305
-136.786
-137.265
-137.741
-138.215
-138.687
-139.156
-139.623
-140.087
-140.550
-141.009
-141.467
-141.922
-142.375
-142.825
-143.273
-143.719
-144.162
-144.602
-145.041
-145.476
-145.910
-146.341
-146.769
-147.195
-147.619
-148.040
-148.458
-148.874
-149.288
-149.699
-150.107
-150.513
-150.917
-151.318
-151.716
-152.112
-152.505
-152.896
-153.284
-153.670
-154.053
-154.433
-154.811
-155.186
-155.559
-155.929
-156.296
-156.661
-157.023
-157.382
-157.739
-158.093
-158.445
-158.794
-159.140
-159.484
-159.824
-160.162
-160.498
-160.831
-161.161
-161.488
-161.813
-162.135
-162.454
-162.770
-163.084
-163.395
-163.703
-164.008
-164.311
-164.611
-164.908
-165.203
-165.494
-165.783
-364.402
-368.572
-365.303
-353.148
-330.828
-297.324
-251.967
-194.524
-125.272
-45.069
44.607
141.633
243.270
346.229
446.795
541.002
624.857
694.592
746.929
779.320
790.149
778.864
746.017
693.225
623.033
538.723
444.060
343.038
239.623
137.531
40.049
-50.082
-130.741
-200.448
-258.346
-304.158
-338.117
-360.892
-373.502
-377.225
-373.510
-175.345
-175.510
-175.673
-175.832
-175.988
-176.142
-176.292
-176.440
-176.584
-176.726
-176.865
-177.000
-177.133
-177.263
-177.389
-177.513
-177.634
-177.752
-177.867
-177.978
-178.087
-178.193
-178.296
-178.396
-178.492
-178.586
-178.677
-178.765
-178.850
-178.931
-179.010
-179.086
-179.159
-179.228
-179.295
-179.359
-179.420
-179.477
-179.532
-179.584
-156.823
-153.854
-150.572
-146.960
-143.001
-138.678
-133.977
-128.886
-123.394
-117.494
-111.183
-104.458
-97.323
-89.786
-81.858
-73.556
-64.901
-55.921
-46.647
-37.116
-27.370
-17.458
-7.430
2.657
12.744
22.765
32.656
42.347
51.770
60.854
69.529
77.726
85.380
92.426
98.806
104.464
109.351
113.425
116.649
118.995
120.441
120.976
120.595
119.302
117.109
114.039
110.119
105.385
99.880
93.654
86.761
79.260
71.216
62.695
53.764
44.495
34.957
25.219
15.351
5.418
-4.517
-14.392
-24.151
-33.744
-43.122
-52.244
-61.071
-69.573
-77.723
-85.498
-92.883
-99.865
-106.438
-112.597
-118.345
-123.685
-128.624
-133.173
-137.344
-141.152
-144.612
-147.742
-150.560
-173.169
-172.967
-172.761
-172.552
-172.341
-172.126
-171.909
-171.689
-171.466
-171.240
-171.011
-170.779
-170.545
-170.307
-170.067
-169.824
-169.577
-169.329
-169.077
-168.822
-168.565
-168.305
-168.041
-167.776
-167.507
-167.235
-166.961
-166.684
-166.404
-166.121
-165.835
-165.547
-165.256
-164.962
-164.665
-164.366
-164.064
-163.759
-163.451
-163.141
-162.827
-162.512
-162.193
-161.871
-161.547
-161.220
-160.891
-160.559
-160.224
-159.886
-159.546
-159.203
-158.857
-158.509
-158.158
-157.804
-157.448
-157.089
-156.727
-156.363
-155.996
-155.626
-155.254
-154.880
-154.502
-154.122
-153.740
-153.355
-152.967
-152.577
-152.184
-151.788
-151.391
-150.990
-150.587
-150.182
-149.773
-149.363
-148.950
-148.534
-148.116
-147.695
-147.272
-146.847
-146.419
-145.988
-145.555
-145.120
-144.682
-144.242
-143.799
-143.354
-142.907
-142.457
-142.005
-141.550
-141.093
-140.633
-140.172
-139.707
-139.241
-138.772
-138.301
-137.827
-137.352
-136.873
-136.393
-135.910
-135.425
-134.938
-134.449
-133.957
-133.463
-132.966
-132.468
-131.967
-131.464
-130.959
-130.451
-129.942
-129.430
-128.916
-128.400
-127.882
-127.361
-126.839
-126.314
-125.787
-125.258
-124.727
-124.194
-123.659
-123.122
-122.582
-122.041
-121.497
-120.952
-120.404
-119.855
-119.303
-118.750
-118.194
-117.636
-117.077
-116.515
-115.952
-115.386
-114.819
-114.250
-113.678
-113.105
-112.530
-111.953
-111.375
-110.794
-110.211
-109.627
-109.041
-108.453
-107.863
-107.271
-106.678
-106.082
-105.485
-104.886
-104.286
-103.683
-103.079
-102.473
-101.866
-101.256
-100.645
-100.033
-99.418
-98.802
-98.185
-97.565
-96.944
-96.322
-95.698
-95.072
-94.444
-93.815
-93.185
-92.552
-91.919
-91.283
-90.647
-90.008
-89.368
-88.727
-88.084
-87.440
-86.794
-86.147
-85.498
-84.848
-84.197
-83.544
-82.889
-82.233
-81.576
-80.918
-80.258
-79.597
-78.934
-78.270
-77.605
-76.938
-76.271
-75.602
-74.931
-74.260
-73.587
-72.913
-72.237
-71.561
-70.883
-70.204
-69.524
-68.843
-68.160
-67.477
-66.792
-66.106
-65.419
-64.731
-64.042
-63.352
-62.660
-61.968
-61.275
-60.580
-59.885
-59.188
-58.491
-57.792
-57.093
-56.393
-55.691
-54.989
-54.286
-53.582
-52.877
-52.171
-51.464
-50.757
-50.048
-49.339
-48.629
-47.918
-47.206
-46.494
-45.780
-45.066
-44.351
-43.636
-42.919
-42.202
-41.485
-40.766
-40.047
-39.327
-38.607
-37.886
-37.164
-36.442
-35.719
-34.995
-34.271
-33.546
-32.821
-32.095
-31.368
-30.641
-29.914
-29.186
-28.458
-27.729
-26.999
-26.269
-25.539
-24.808
-24.077
-23.346
-22.614
-21.881
-21.149
-20.416
-19.682
-18.949
-18.215
-17.480
-16.746
-16.011
-15.275
-14.540
-13.804
-13.068
-12.332
-11.596
-10.859
-10.123
-9.386
-8.649
-7.912
-7.174
-6.437
-5.699
-4.962
-4.224
-3.486
-2.748
-2.010
-1.272
-0.534
0.204
0.942
1.680
2.418
3.155
3.893
4.631
5.369
6.106
6.844
7.581
8.318
9.056
9.793
10.529
11.266
12.002
12.739
13.475
14.210
14.946
15.681
16.416
17.151
17.886
18.620
19.354
20.087
20.820
21.553
22.286
23.018
23.749
24.481
25.212
25.942
26.672
27.402
28.131
28.860
29.588
30.316
31.043
31.769
32.496
33.221
33.946
34.671
35.394
36.118
36.840
37.562
38.284
39.005
39.725
40.444
41.163
41.881
42.598
43.315
44.031
44.746
45.461
46.174
46.887
47.599
48.311
49.021
49.731
50.440
51.147
51.855
52.561
53.266
53.971
54.674
55.377
56.079
56.779
57.479
58.178
58.876
-138.760
-141.951
-137.707
-124.580
-101.292
-66.824
-20.508
37.892
108.095
189.247
279.867
377.833
480.407
584.299
685.793
780.924
865.699
936.351
989.600
1022.899
1034.632
1024.247
992.296
940.395
871.092
787.664
693.881
593.734
491.190
389.963
293.344
204.071
124.266
55.408
-1.645
-46.615
-79.738
-101.681
-113.463
-116.363
-111.829
87.151
87.796
88.439
89.081
89.722
90.361
90.998
91.634
92.269
92.902
93.533
94.163
94.791
95.417
96.042
96.666
97.287
97.907
98.526
99.143
99.758
100.371
100.983
101.593
102.201
102.808
103.413
104.016
104.617
105.217
105.815
106.411
107.005
107.598
108.189
108.777
109.365
109.950
110.533
111.115
134.503
138.096
141.997
146.222
150.790
155.717
161.016
166.701
172.782
179.265
186.156
193.455
201.158
209.259
217.746
226.602
235.805
245.329
255.142
265.207
275.480
285.917
296.463
307.063
317.657
328.182
338.570
348.755
358.665
368.231
377.383
386.052
394.173
401.681
408.517
414.626
419.960
424.474
428.134
430.910
432.781
433.736
433.769
432.885
431.097
428.425
424.899
420.553
415.431
409.582
403.062
395.928
388.246
380.081
371.501
362.577
353.379
343.977
334.438
324.829
315.214
305.652
296.200
286.911
277.830
269.000
260.459
252.238
244.364
236.859
229.739
223.017
216.698
210.787
205.283
200.181
195.474
191.151
187.202
183.610
180.360
177.435
174.816
152.401
152.792
153.181
153.568
153.951
154.332
154.711
155.087
155.460
155.831
156.199
156.564
156.927
157.287
157.645
158.000
158.352
158.701
159.048
159.392
159.734
160.073
160.409
160.742
161.073
161.401
161.727
162.049
162.369
162.686
163.001
163.312
163.621
163.928
164.231
164.532
164.830
165.125
165.417
165.707
165.993
166.277
166.559
166.837
167.113
167.386
167.656
167.923
168.187
168.449
168.707
168.963
169.216
169.466
169.714
169.958
170.200
170.438
170.674
170.907
171.138
171.365
171.589
171.811
172.029
172.245
172.458
172.668
172.875
173.079
173.280
173.479
173.674
173.866
174.056
174.243
174.426
174.607
174.785
174.960
175.132
175.301
175.467
175.630
175.790
175.947
176.101
176.253
176.401
176.546
176.689
176.828
176.965
177.098
177.229
177.356
177.481
177.602
177.721
177.836
177.949
178.058
178.165
178.269
178.369
178.467
178.561
178.653
178.742
178.827
178.910
178.990
179.066
179.140
179.210
179.278
179.342
179.404
179.462
179.518
179.570
179.620
179.666
179.710
179.750
179.787
179.822
179.853
179.881
179.907
179.929
179.948
179.964
179.977
179.988
179.995
179.999
180.000
179.998
179.993
179.985
179.974
179.960
179.943
179.923
179.900
179.874
179.844
179.812
179.777
179.739
179.697
179.653
179.606
179.556
179.502
179.446
179.387
179.324
179.259
179.190
179.119
179.044
178.967
178.887
178.803
178.717
178.627
178.535
178.439
178.341
178.239
178.135
178.027
177.917
177.804
177.687
177.568
177.445
177.320
177.192
177.060
176.926
176.789
176.648
176.505
176.359
176.210
176.058
175.902
175.744
175.583
175.419
175.253
175.083
174.910
174.734
174.556
174.374
174.189
174.002
173.812
173.618
173.422
173.223
173.021
172.816
172.608
172.397
172.184
171.967
171.748
171.525
171.300
171.072
170.841
170.607
170.371
170.131
169.888
169.643
169.395
169.144
168.890
168.634
168.374
168.112
167.847
167.579
167.308
167.034
166.758
166.479
166.197
165.912
165.624
165.334
165.041
164.745
164.446
164.144
163.840
163.533
163.224
162.911
162.596
162.278
161.957
161.634
161.308
160.979
160.647
160.313
159.976
159.637
159.294
158.949
158.602
158.251
157.898
157.543
157.184
156.823
156.460
156.094
155.725
155.353
154.979
154.603
154.224
153.842
153.457
153.070
152.681
152.289
151.894
151.497
151.097
150.695
150.290
149.882
149.472
149.060
148.645
148.228
147.808
147.385
146.960
146.533
146.103
145.671
145.236
144.799
144.359
143.917
143.473
143.026
142.577
142.125
141.671
141.215
140.756
140.295
139.831
139.365
138.897
138.426
137.954
137.478
137.001
136.521
136.039
135.555
135.068
134.579
134.088
133.594
-65.234
-69.619
-66.570
-54.639
-32.549
0.721
45.837
103.036
172.038
251.986
341.402
438.163
539.531
642.215
742.502
836.424
919.989
989.430
1041.467
1073.554
1084.074
1072.474
1039.308
986.191
915.671
831.026
736.024
634.659
530.895
428.448
330.608
240.114
159.086
89.006
30.730
-15.465
-49.811
-72.979
-85.987
-90.112
-86.804
110.949
110.366
109.783
109.197
108.609
108.020
107.429
106.836
106.241
105.644
105.046
104.446
103.844
103.240
102.635
102.028
101.419
100.808
100.196
99.582
98.966
98.349
97.730
97.110
96.488
95.864
95.238
94.611
93.983
93.353
92.721
92.087
91.453
90.816
90.178
89.539
88.898
88.255
87.612
86.966
109.128
111.495
114.170
117.170
120.513
124.216
128.292
132.754
137.612
142.873
148.543
154.621
161.104
167.986
175.254
182.892
190.878
199.186
207.783
216.632
225.692
234.915
244.249
253.638
263.021
272.336
281.516
290.492
299.196
307.556
315.503
322.969
329.887
336.193
341.829
346.739
350.874
354.191
356.655
358.236
358.914
358.676
357.519
355.445
352.469
348.610
343.898
338.367
332.063
325.032
317.332
309.020
300.160
290.819
281.065
270.968
260.599
250.027
239.320
228.545
217.764
207.040
196.426
185.977
175.738
165.752
156.056
146.682
137.657
129.002
120.735
112.866
105.404
98.351
91.706
85.466
79.623
74.166
69.084
64.362
59.983
55.932
52.189
28.651
27.923
27.193
26.464
25.733
25.003
24.272
23.540
22.808
22.076
21.344
20.611
19.877
19.144
18.410
17.676
16.941
16.206
15.471
14.736
14.000
13.264
12.528
11.792
11.055
10.319
9.582
8.845
8.108
7.370
6.633
5.895
5.158
4.420
3.682
2.944
2.206
1.469
0.731
-0.007
-0.745
-1.483
-2.221
-2.959
-3.697
-4.435
-5.173
-5.910
-6.648
-7.385
-8.122
-8.860
-9.597
-10.333
-11.070
-11.807
-12.543
-13.279
-14.015
-14.750
-15.486
-16.221
-16.956
-17.690
-18.424
-19.158
-19.892
-20.625
-21.358
-22.091
-22.823
-23.555
-24.286
-25.017
-25.748
-26.478
-27.208
-27.937
-28.666
-29.394
-30.122
-30.849
-31.576
-32.302
-33.028
-33.753
-34.478
-35.202
-35.925
-36.648
-37.370
-38.092
-38.813
-39.533
-40.253
-40.972
-41.690
-42.408
-43.124
-43.841
-44.556
-45.271
-45.984
-46.698
-47.410
-48.121
-48.832
-49.542
-50.251
-50.959
-51.667
-52.373
-53.079
-53.783
-54.487
-55.190
-55.892
-56.593
-57.293
-57.992
-58.690
-59.388
-60.084
-60.779
-61.473
-62.166
-62.858
-63.549
-64.239
-64.928
-65.616
-66.302
-66.988
-67.672
-68.355
-69.038
-69.719
-70.398
-71.077
-71.754
-72.431
-73.106
-73.779
-74.452
-75.123
-75.793
-76.462
-77.129
-77.795
-78.460
-79.124
-79.786
-80.447
-81.106
-81.764
-82.421
-83.077
-83.730
-84.383
-85.034
-85.684
-86.332
-86.979
-87.624
-88.268
-88.911
-89.552
-90.191
-90.829
-91.465
-92.100
-92.733
-93.365
-93.995
-94.624
-95.251
-95.876
-96.500
-97.122
-97.743
-98.362
-98.979
-99.594
-100.208
-100.820
-101.431
-102.040
-102.647
-103.252
-103.856
-104.458
-105.058
-105.656
-106.253
-106.847
-107.440
-108.032
-108.621
-109.209
-109.794
-110.378
-110.960
-111.540
-112.119
-112.695
-113.269
-113.842
-114.413
-114.981
-115.548
-116.113
-116.676
-117.237
-117.796
-118.353
-118.908
-119.461
-120.012
-120.561
-121.108
-319.986
-324.415
-321.407
-309.513
-287.454
-254.213
-209.120
-151.941
-82.954
-3.016
86.394
183.153
284.523
387.214
487.511
581.448
665.033
734.497
786.562
818.681
829.237
817.678
784.557
731.490
661.023
576.436
481.496
380.197
276.504
174.133
76.372
-14.039
-94.979
-164.967
-223.147
-269.241
-303.482
-326.541
-339.435
-343.443
-340.013
-142.134
-142.586
-143.035
-143.482
-143.926
-144.368
-144.808
-145.245
-145.680
-146.112
-146.542
-146.969
-147.394
-147.816
-148.236
-148.653
-149.068
-149.481
-149.890
-150.298
-150.703
-151.105
-151.505
-151.902
-152.296
-152.689
-153.078
-153.465
-153.849
-154.231
-154.610
-154.987
-155.361
-155.732
-156.101
-156.467
-156.831
-157.192
-157.550
-157.905
-135.449
-132.784
-129.808
-126.501
-122.847
-118.830
-114.436
-109.651
-104.467
-98.874
-92.870
-86.453
-79.627
-72.398
-64.779
-56.786
-48.441
-39.770
-30.806
-21.585
-12.150
-2.549
7.169
16.944
26.719
36.429
46.008
55.387
64.497
73.269
81.631
89.515
96.856
103.589
109.655
114.999
119.572
123.332
126.242
128.273
129.405
129.625
128.929
127.321
124.813
121.427
117.192
112.142
106.322
99.780
92.571
84.755
76.395
67.557
58.310
48.724
38.870
28.816
18.631
8.381
-1.870
-12.061
-22.138
-32.047
-41.742
-51.180
-60.324
-69.143
-77.609
-85.702
-93.403
-100.702
-107.592
-114.068
-120.132
-125.789
-131.045
-135.910
-140.398
-144.522
-148.299
-151.746
-154.880
-177.806
-177.919
-178.030
-178.137
-178.241
-178.343
-178.441
-178.537
-178.629
-178.718
-178.805
-178.888
-178.969
-179.046
-179.120
-179.192
-179.260
-179.325
-179.388
-179.447
-179.503
-179.557
-179.607
-179.654
-179.698
-179.740
-179.778
-179.813
-179.845
-179.874
-179.900
-179.923
-179.943
-179.960
-179.974
-179.985
-179.993
-179.998
-180.000
-179.999
-179.995
-179.987
-179.977
-179.964
-179.948
-179.928
-179.906
-179.881
-179.852
-179.821
-179.787
-179.749
-179.709
-179.665
-179.619
-179.569
-179.517
-179.461
-179.403
-179.341
-179.276
-179.209
-179.138
-179.065
-178.988
-178.908
-178.826
-178.740
-178.651
-178.560
-178.465
-178.367
-178.267
-178.163
-178.056
-177.947
-177.834
-177.718
-177.600
-177.478
-177.354
-177.226
-177.095
-176.962
-176.825
-176.686
-176.543
-176.398
-176.250
-176.098
-175.944
-175.787
-175.627
-175.463
-175.297
-175.128
-174.956
-174.781
-174.603
-174.423
-174.239
-174.052
-173.863
-173.670
-173.475
-173.276
-173.075
-172.871
-172.664
-172.454
-172.241
-172.025
-171.806
-171.585
-171.360
-171.133
-170.903
-170.670
-170.434
-170.195
-169.953
-169.709
-169.461
-169.211
-168.958
-168.702
-168.443
-168.182
-167.917
-167.650
-167.380
-167.107
-166.832
-166.553
-166.272
-165.988
-165.701
-165.411
-165.119
-164.824
-164.526
-164.225
-163.921
-163.615
-163.306
-162.994
-162.680
-162.363
-162.043
-161.720
-161.395
-161.067
-160.736
-160.402
-160.066
-159.727
-159.386
-159.041
-158.694
-158.345
-157.992
-157.638
-157.280
-156.920
-156.557
-156.191
-155.823
-155.453
-155.079
-154.703
-154.325
-153.944
-153.560
-153.174
-152.785
-152.393
-151.999
-151.603
-151.203
-150.802
-150.398
-149.991
-149.582
-149.170
-148.756
-148.339
-147.920
-147.498
-147.074
-146.647
-146.218
-145.786
-145.352
-144.915
-144.477
-144.035
-143.591
-143.145
-142.696
-142.245
-141.792
-141.336
-140.878
-140.418
-139.955
-139.489
-139.022
-138.552
-138.080
-137.605
-137.128
-334.982
-338.387
-334.354
-321.435
-298.351
-264.085
-217.966
-159.761
-89.749
-8.785
81.650
179.435
281.831
385.548
486.871
581.835
666.446
736.936
790.027
823.172
834.754
824.221
792.126
740.084
670.642
587.081
493.166
392.892
290.224
188.877
92.140
2.753
-77.163
-146.128
-203.285
-248.356
-281.575
-303.612
-315.485
-318.471
-314.021
-115.121
-114.553
-113.983
-113.411
-112.836
-112.261
-111.683
-111.103
-110.522
-109.938
-109.353
-108.766
-108.177
-107.586
-106.994
-106.399
-105.803
-105.205
-104.605
-104.004
-103.401
-102.796
-102.189
-101.581
-100.971
-100.359
-99.745
-99.130
-98.514
-97.895
-97.275
-96.653
-96.030
-95.405
-94.778
-94.150
-93.520
-92.889
-92.256
-91.622
-68.177
-64.524
-60.561
-56.268
-51.630
-46.630
-41.254
-35.489
-29.325
-22.754
-15.773
-8.381
-0.580
7.621
16.212
25.175
34.489
44.127
54.058
64.243
74.641
85.205
95.882
106.617
117.349
128.014
138.547
148.879
158.940
168.661
177.971
186.802
195.087
202.763
209.770
216.054
221.565
226.261
230.105
233.069
235.132
236.281
236.512
235.830
234.246
231.782
228.467
224.335
219.431
213.804
207.507
200.602
193.150
185.219
176.877
168.194
159.240
150.084
140.796
131.441
122.083
112.781
103.593
94.570
85.759
77.203
68.938
60.997
53.406
46.187
39.357
32.926
26.903
21.291
16.089
11.292
6.894
2.883
-0.752
-4.026
-6.955
-9.556
-11.847
-33.932
-33.207
-32.481
-31.755
-31.028
-30.301
-29.573
-28.845
-28.116
-27.387
-26.658
-25.928
-25.197
-24.466
-23.735
-23.003
-22.271
-21.539
-20.806
-20.072
-19.339
-18.605
-17.871
-17.136
-16.402
-15.667
-14.931
-14.196
-13.460
-12.724
-11.988
-11.251
-10.515
-9.778
-9.041
-8.304
-7.566
-6.829
-6.092
-5.354
-4.616
-3.879
-3.141
-2.403
-1.665
-0.927
-0.189
0.549
1.287
2.025
2.763
3.501
4.239
4.976
5.714
6.451
7.189
7.926
8.663
9.401
10.137
10.874
11.611
12.347
13.083
13.819
14.555
15.290
16.025
16.760
17.495
18.229
18.963
19.697
20.430
21.163
21.896
22.628
23.360
24.092
24.823
25.554
26.284
27.014
27.743
28.472
29.201
29.928
30.656
31.383
32.109
32.835
33.560
34.285
35.009
35.733
36.456
37.178
37.900
38.621
39.342
40.061
40.781
41.499
42.217
42.934
43.650
44.366
45.081
45.795
46.508
47.220
47.932
48.643
49.353
50.063
50.771
51.479
52.185
52.891
53.596
54.300
55.003
55.705
56.407
57.107
57.806
58.505
59.202
59.899
60.594
61.288
61.982
62.674
63.365
64.056
64.745
65.433
66.120
66.806
67.490
68.174
68.856
69.538
70.218
70.897
71.574
72.251
72.926
73.600
74.273
74.945
75.615
76.284
76.952
77.618
78.283
78.947
79.610
80.271
80.931
81.589
82.247
82.902
83.557
84.210
84.861
85.511
86.160
86.807
87.453
88.097
88.740
89.381
90.021
90.659
91.296
91.931
92.565
93.197
93.828
94.457
95.084
95.710
96.334
96.957
97.578
98.197
98.815
99.431
100.045
100.658
101.269
101.878
102.485
103.091
103.695
104.298
104.898
105.497
106.094
106.689
107.283
107.875
108.464
109.052
109.639
110.223
110.806
111.386
111.965
112.542
113.117
113.690
114.261
114.830
115.398
115.963
116.527
117.088
117.648
118.205
118.761
119.314
119.866
120.415
120.963
121.508
122.052
122.593
123.132
123.670
124.205
124.738
125.269
125.798
126.325
126.849
127.372
127.892
128.410
128.926
129.440
129.952
130.462
130.969
131.474
131.977
132.478
132.976
133.473
133.967
134.458
134.948
135.435
135.920
136.403
136.883
137.361
137.837
138.310
138.781
139.250
139.717
140.181
140.643
141.102
141.559
142.014
142.466
142.916
143.363
143.808
144.251
144.691
145.129
145.564
145.997
146.427
146.855
147.281
147.704
148.124
148.543
148.958
149.371
149.782
150.190
150.595
150.998
151.399
151.796
152.192
152.585
152.975
153.362
153.747
154.130
154.510
154.887
155.262
155.634
156.003
156.370
156.734
157.096
157.455
157.811
158.165
158.516
158.864
159.210
159.553
159.893
160.230
160.565
160.898
161.227
161.554
161.878
162.199
162.518
162.834
163.147
163.457
163.765
164.070
164.372
164.671
164.968
165.262
165.553
165.841
166.127
166.409
166.689
166.966
167.241
167.512
167.781
168.047
168.310
168.570
168.827
169.082
169.334
169.582
169.828
170.072
170.312
170.549
170.784
171.015
171.244
171.470
171.693
171.913
172.131
172.345
172.557
172.765
172.971
173.174
173.373
173.570
173.764
173.955
174.144
174.329
174.511
-23.643
-27.352
-23.630
-11.026
11.737
45.677
91.465
149.333
219.004
299.621
389.705
487.133
589.166
692.516
793.466
888.052
972.280
1042.382
1095.080
1127.827
1139.006
1128.064
1095.555
1043.094
973.229
889.239
794.890
694.177
591.064
489.268
392.077
302.231
221.851
152.417
94.785
49.235
15.531
-6.995
-19.362
-22.848
-18.901
179.489
179.543
179.594
179.642
179.687
179.729
179.768
179.804
179.837
179.867
179.894
179.917
179.938
179.956
179.971
179.983
179.991
179.997
180.000
179.999
179.996
179.990
179.980
179.968
179.952
179.934
179.912
179.888
179.860
179.830
179.796
179.759
179.720
179.677
179.631
179.583
179.531
179.476
179.419
179.358
202.103
205.051
208.306
211.885
215.805
220.082
224.732
229.766
235.194
241.024
247.261
253.904
260.951
268.395
276.223
284.420
292.963
301.825
310.976
320.377
329.987
339.758
349.639
359.572
369.499
379.354
389.074
398.588
407.827
416.721
425.200
433.196
440.642
447.475
453.635
459.068
463.724
467.560
470.541
472.637
473.829
474.102
473.454
471.888
469.417
466.061
461.850
456.820
451.012
444.478
437.270
429.450
421.079
412.226
402.957
393.344
383.456
373.363
363.133
352.833
342.526
332.272
322.128
312.144
302.370
292.846
283.611
274.695
266.126
257.925
250.110
242.690
235.675
229.067
222.866
217.066
211.661
206.641
201.993
197.702
193.754
190.129
186.811
163.697
163.389
163.078
162.764
162.447
162.128
161.806
161.481
161.154
160.824
160.491
160.156
159.818
159.477
159.133
158.787
158.438
158.086
157.732
157.375
157.016
156.654
156.289
155.921
155.551
155.179
154.804
154.426
154.045
153.662
153.277
152.888
152.498
152.104
151.708
151.310
150.909
150.505
150.099
149.691
149.280
148.866
148.450
148.031
147.610
147.187
146.761
146.332
145.901
145.468
145.032
144.594
144.153
143.710
143.264
142.816
142.366
141.913
141.458
141.000
140.540
140.078
139.613
139.146
138.677
138.205
137.731
137.255
136.777
136.296
135.813
135.327
134.839
134.349
133.857
133.363
132.866
132.367
131.866
131.362
130.857
130.349
129.839
129.326
128.812
128.296
127.777
127.256
126.733
126.208
125.681
125.151
124.620
124.086
123.551
123.013
122.473
121.931
121.387
120.841
120.293
119.744
119.192
118.638
118.082
117.524
116.964
116.402
115.838
115.272
114.704
114.134
113.563
112.989
112.414
111.837
111.257
110.676
110.093
109.509
108.922
108.334
107.743
107.151
106.557
105.962
105.364
104.765
104.164
103.561
102.957
102.351
101.743
101.133
100.522
99.909
99.294
98.678
98.060
97.440
96.819
96.196
95.571
94.945
94.317
93.688
93.057
92.425
91.791
91.155
90.518
89.879
89.239
88.597
87.954
87.310
86.664
86.016
85.367
84.717
84.065
83.412
82.757
82.101
81.443
80.785
80.124
79.463
78.800
78.136
77.470
76.804
76.136
75.466
74.796
74.124
73.451
72.776
72.101
71.424
70.746
70.067
69.386
68.705
68.022
67.338
66.653
65.967
65.280
64.592
63.902
63.212
62.521
-136.505
-141.085
-138.231
-126.493
-104.594
-71.516
-26.589
30.421
99.236
178.998
268.229
364.807
465.993
568.496
668.602
762.346
845.734
914.999
966.861
998.774
1009.122
997.351
964.015
910.730
840.042
755.232
660.065
558.536
454.610
352.003
254.003
163.351
82.166
11.930
-46.500
-92.848
-127.346
-150.665
-163.822
-168.095
-164.934
32.674
31.948
31.222
30.494
29.767
29.039
28.310
27.581
26.852
26.122
25.391
24.661
23.929
23.198
22.466
21.733
21.001
20.268
19.534
18.800
18.066
17.332
16.597
15.862
15.127
14.391
13.656
12.920
12.184
11.447
10.711
9.974
9.237
8.500
7.763
7.025
6.288
5.550
4.813
4.075
26.146
28.423
31.010
33.923
37.181
40.800
44.793
49.174
53.952
59.135
64.728
70.730
77.140
83.949
91.145
98.713
106.631
114.871
123.403
132.188
141.185
150.347
159.621
168.951
178.278
187.537
196.662
205.586
214.238
222.548
230.447
237.865
244.737
250.999
256.592
261.461
265.556
268.835
271.261
272.807
273.451
273.180
271.991
269.888
266.883
262.997
258.259
252.705
246.377
239.326
231.605
223.275
214.398
205.041
195.273
185.164
174.784
164.202
153.486
142.704
131.919
121.190
110.574
100.123
89.885
79.901
70.208
60.839
51.820
43.173
34.914
27.056
19.606
12.566
5.936
-0.288
-6.114
-11.551
-16.613
-21.313
-25.668
-29.694
-33.411
-56.921
-57.620
-58.319
-59.017
-59.714
-60.409
-61.104
-61.797
-62.490
-63.182
-63.872
-64.562
-65.250
-65.937
-66.623
-67.308
-67.992
-68.675
-69.356
-70.037
-70.716
-71.394
-72.071
-72.747
-73.421
-74.094
-74.766
-75.437
-76.106
-76.774
-77.441
-78.107
-78.771
-79.434
-80.095
-80.756
-81.414
-82.072
-82.728
-83.383
-84.036
-84.688
-85.338
-85.987
-86.635
-87.281
-87.926
-88.569
-89.211
-89.851
-90.490
-91.127
-91.763
-92.397
-93.029
-93.660
-94.290
-94.917
-95.544
-96.168
-96.791
-97.413
-98.032
-98.651
-99.267
-99.882
-100.495
-101.106
-101.716
-102.324
-102.930
-103.535
-104.138
-104.739
-105.338
-105.936
-106.531
-107.125
-107.717
-108.308
-108.896
-109.483
-110.068
-110.651
-111.232
-111.811
-112.389
-112.964
-113.538
-114.109
-114.679
-115.247
-115.813
-116.377
-116.939
-117.499
-118.057
-118.613
-119.167
-119.719
-120.269
-120.817
-121.363
-121.907
-122.449
-122.989
-123.527
-124.063
-124.596
-125.128
-125.657
-126.185
-126.710
-127.233
-127.754
-128.273
-128.789
-129.304
-129.816
-130.326
-130.834
-131.340
-131.844
-132.345
-132.844
-133.341
-133.835
-134.328
-134.818
-135.306
-135.791
-136.275
-136.756
-137.234
-137.711
-138.185
-138.656
-139.126
-139.593
-140.058
-140.520
-140.980
-141.438
-141.893
-142.346
-142.796
-143.244
-143.690
-144.133
-144.574
-145.013
-145.449
-145.882
-146.313
-146.742
-147.168
-147.592
-148.013
-148.432
-148.848
-149.261
-149.673
-150.081
-150.488
-150.891
-151.292
-151.691
-152.087
-152.480
-152.871
-153.259
-153.645
-154.028
-154.409
-154.787
-155.162
-155.535
-155.905
-156.273
-156.638
-157.000
-157.360
-157.717
-158.071
-158.423
-158.772
-159.118
-159.462
-159.803
-160.141
-160.477
-160.809
-161.140
-161.467
-161.792
-162.114
-162.433
-162.750
-163.064
-163.375
-163.683
-163.989
-164.292
-164.592
-164.889
-165.184
-165.476
-165.765
-166.051
-166.335
-166.615
-166.893
-167.168
-167.440
-167.710
-167.976
-168.240
-168.501
-168.759
-169.014
-169.267
-169.517
-169.763
-170.007
-170.248
-170.486
-170.722
-170.954
-171.184
-171.410
-171.634
-171.855
-172.073
-172.288
-172.501
-172.710
-172.916
-173.120
-173.320
-173.518
-173.713
-173.905
-174.094
-174.280
-174.463
-174.643
-174.820
-174.995
-175.166
-175.334
-175.500
-175.662
-175.822
-175.979
-176.132
-176.283
-176.431
-176.575
-176.717
-176.856
-176.992
-177.125
-177.255
-177.381
-177.505
-177.626
-177.744
-177.859
-177.971
-178.080
-178.186
-178.289
-178.389
-178.486
-178.580
-178.671
-178.759
-178.844
-178.926
-179.005
-179.081
-179.154
-179.224
-179.291
-179.355
-179.416
-179.474
-179.529
-179.581
-179.629
-179.675
-179.718
-179.758
-179.795
-179.828
-179.859
-179.887
-179.911
-179.933
-179.952
-179.967
-179.980
-179.989
-179.996
-179.999
-180.000
-179.997
-179.992
-179.983
-179.971
-179.957
-179.939
-179.918
-179.895
-179.868
-179.838
-179.805
-179.769
-179.731
-179.689
-179.644
-179.596
-179.545
-179.491
-179.434
-179.374
-179.311
-377.578
-381.395
-377.774
-365.266
-342.593
-308.736
-263.026
-205.230
-135.624
-55.067
34.963
132.343
234.334
337.648
438.569
533.130
617.340
687.431
740.122
772.869
784.053
773.124
740.632
688.196
618.360
534.405
440.098
339.433
236.374
134.637
37.511
-52.263
-132.566
-201.917
-259.459
-304.914
-338.517
-360.936
-373.189
-376.556
-372.485
-173.964
-173.773
-173.579
-173.382
-173.182
-172.980
-172.774
-172.566
-172.354
-172.140
-171.923
-171.703
-171.480
-171.254
-171.026
-170.794
-170.560
-170.322
-170.082
-169.839
-169.593
-169.345
-169.093
-168.839
-168.581
-168.321
-168.058
-167.793
-167.524
-167.253
-166.979
-166.702
-166.422
-166.139
-165.854
-165.566
-165.275
-164.981
-164.685
-164.385
-141.274
-137.954
-134.322
-130.361
-126.052
-121.379
-116.330
-110.890
-105.049
-98.802
-92.142
-85.070
-77.588
-69.704
-61.429
-52.781
-43.781
-34.455
-24.836
-14.960
-4.870
5.386
15.758
26.188
36.617
46.981
57.214
67.247
77.011
86.435
95.450
103.988
111.981
119.366
126.084
132.080
137.305
141.716
145.277
147.959
149.741
150.611
150.564
149.605
147.747
145.010
141.422
137.020
131.847
125.952
119.389
112.219
104.504
96.312
87.709
78.768
69.556
60.145
50.603
40.995
31.386
21.835
12.399
3.129
-5.926
-14.726
-23.233
-31.414
-39.244
-46.700
-53.767
-60.431
-66.686
-72.530
-77.961
-82.986
-87.611
-91.846
-95.704
-99.199
-102.348
-105.167
-107.675
-129.975
-129.463
-128.949
-128.433
-127.915
-127.395
-126.872
-126.348
-125.821
-125.292
-124.761
-124.228
-123.693
-123.156
-122.617
-122.076
-121.532
-120.987
-120.439
-119.890
-119.339
-118.785
-118.230
-117.672
-117.113
-116.551
-115.988
-115.423
-114.855
-114.286
-113.715
-113.142
-112.567
-111.990
-111.412
-110.831
-110.249
-109.664
-109.078
-108.490
-107.901
-107.309
-106.716
-106.120
-105.523
-104.925
-104.324
-103.722
-103.118
-102.512
-101.905
-101.295
-100.685
-100.072
-99.458
-98.842
-98.224
-97.605
-96.984
-96.362
-95.738
-95.112
-94.484
-93.856
-93.225
-92.593
-91.959
-91.324
-90.687
-90.049
-89.409
-88.768
-88.125
-87.481
-86.836
-86.188
-85.540
-84.890
-84.238
-83.585
-82.931
-82.275
-81.618
-80.960
-80.300
-79.639
-78.977
-78.313
-77.648
-76.981
-76.313
-75.644
-74.974
-74.303
-73.630
-72.956
-72.281
-71.604
-70.926
-70.248
-69.567
-68.886
-68.204
-67.520
-66.836
-66.150
-65.463
-64.775
-64.086
-63.396
-62.705
-62.012
-61.319
-60.625
-59.929
-59.233
-58.536
-57.837
-57.138
-56.438
-55.736
-55.034
-54.331
-53.627
-52.922
-52.216
-51.510
-50.802
-50.094
-49.384
-48.674
-47.963
-47.252
-46.539
-45.826
-45.112
-44.397
-43.682
-42.965
-42.248
-41.531
-40.812
-40.093
-39.373
-38.653
-37.932
-37.210
-36.488
-35.765
-35.041
-34.317
-33.592
-32.867
-32.141
-31.415
-30.688
-29.961
-29.233
-28.504
-27.775
-27.046
-26.316
-25.586
-24.855
-24.124
-23.392
-22.661
-21.928
-21.196
-20.463
-19.729
-18.996
-18.262
-17.527
-16.793
-16.058
-15.322
-14.587
-13.851
-13.116
-12.379
-11.643
-10.907
-10.170
-9.433
-8.696
-7.959
-7.221
-6.484
-5.746
-5.009
-4.271
-3.533
-2.795
-2.057
-1.319
-0.582
0.156
0.894
1.632
2.370
3.108
3.846
4.584
5.322
6.059
6.797
7.534
8.271
9.008
9.745
10.482
11.219
11.955
12.692
13.428
14.163
14.899
15.634
16.369
17.104
17.839
18.573
19.307
20.040
20.773
21.506
22.239
22.971
23.703
24.434
25.165
25.895
26.626
27.355
28.084
28.813
29.541
30.269
30.996
31.723
32.449
33.175
33.900
34.624
35.348
36.071
36.794
37.516
38.238
38.958
39.679
40.398
41.117
41.835
42.552
43.269
43.985
44.700
45.415
46.129
46.842
47.554
48.265
48.976
49.685
50.394
51.102
51.809
52.516
53.221
53.926
54.629
55.332
56.034
56.735
57.434
58.133
58.831
-138.805
-141.995
-137.751
-124.624
-101.336
-66.868
-20.552
37.848
108.051
189.203
279.823
377.790
480.363
584.255
685.749
780.881
865.656
936.308
989.557
1022.856
1034.589
1024.204
992.253
940.352
871.049
787.621
693.838
593.691
491.147
389.921
293.302
204.029
124.224
55.366
-1.687
-46.657
-79.780
-101.723
-113.505
-116.404
-111.870
87.110
87.755
88.398
89.040
89.681
90.320
90.958
91.594
92.228
92.861
93.493
94.122
94.751
95.377
96.002
96.626
97.248
97.868
98.486
99.103
99.718
100.332
100.944
101.554
102.162
102.769
103.374
103.977
104.579
105.179
105.777
106.373
106.967
107.560
108.151
108.740
109.327
109.912
110.496
111.078
134.466
138.059
141.960
146.185
150.753
155.680
160.980
166.665
172.746
179.229
186.120
193.419
201.123
209.224
217.711
226.567
235.770
245.294
255.107
265.172
275.446
285.882
296.429
307.029
317.623
328.148
338.537
348.721
358.631
368.197
377.350
386.019
394.140
401.648
408.484
414.594
419.927
424.442
428.102
430.878
432.749
433.704
433.738
432.854
431.066
428.394
424.868
420.522
415.400
409.552
403.031
395.898
388.216
380.051
371.471
362.548
353.350
343.947
334.409
324.800
315.185
305.623
296.172
286.882
277.802
268.972
260.431
252.211
244.337
236.832
229.712
222.989
216.671
210.760
205.256
200.154
195.447
191.125
187.176
183.584
180.334
177.409
174.791
152.376
152.767
153.156
153.543
153.927
154.308
154.687
155.063
155.436
155.807
156.175
156.541
156.904
157.264
157.622
157.977
158.329
158.679
159.026
159.370
159.712
160.051
160.388
160.721
161.052
161.380
161.706
162.029
162.349
162.666
162.981
163.293
163.602
163.908
164.212
164.512
164.811
165.106
165.398
165.688
165.975
166.259
166.541
166.819
167.095
167.368
167.638
167.906
168.170
168.432
168.691
168.947
169.200
169.450
169.698
169.943
170.184
170.423
170.659
170.893
171.123
171.350
171.575
171.797
172.015
172.231
172.444
172.654
172.862
173.066
173.267
173.466
173.661
173.854
174.044
174.231
174.415
174.595
174.774
174.949
175.121
175.290
175.456
175.619
175.780
175.937
176.092
176.243
176.392
176.537
176.680
176.819
176.956
177.090
177.220
177.348
177.473
177.594
177.713
177.829
177.942
178.052
178.158
178.262
178.363
178.461
178.556
178.647
178.736
178.822
178.905
178.985
179.061
179.135
179.206
179.274
179.338
179.400
179.459
179.514
179.567
179.617
179.663
179.707
179.747
179.785
179.820
179.851
179.880
179.905
179.928
179.947
179.963
179.977
179.987
179.994
179.999
180.000
179.998
179.993
179.986
179.975
179.961
179.944
179.924
179.901
179.875
179.846
179.814
179.779
179.741
179.700
179.656
179.609
179.559
179.506
179.450
179.390
179.328
179.263
179.195
179.124
179.049
178.972
178.892
178.809
178.722
178.633
178.541
178.445
178.347
178.246
178.142
178.034
177.924
177.811
177.695
177.575
177.453
177.328
177.200
177.069
176.935
176.797
176.657
176.514
176.368
176.219
176.067
175.912
175.755
175.594
175.430
-23.070
-27.126
-23.749
-11.492
10.925
44.520
89.961
147.483
216.808
297.080
386.817
483.899
585.587
688.591
789.195
883.436
967.318
1037.075
1089.427
1121.828
1132.662
1121.375
1088.522
1035.716
965.506
881.171
786.478
685.421
581.964
479.824
382.289
292.099
211.375
141.598
83.623
37.730
3.683
-19.186
-31.895
-35.723
-32.118
165.930
165.643
165.352
165.059
164.764
164.465
164.164
163.860
163.553
163.243
162.931
162.616
162.298
161.978
161.655
161.329
161.000
160.669
160.335
159.998
159.658
159.316
158.971
158.624
158.274
157.921
157.566
157.207
156.847
156.483
156.117
155.749
155.377
155.003
154.627
154.248
153.866
153.482
153.095
152.706
175.123
177.743
180.671
183.923
187.516
191.468
195.792
200.501
205.605
211.111
217.024
223.345
230.070
237.192
244.699
252.574
260.797
269.340
278.171
287.254
296.546
305.999
315.563
325.180
334.791
344.331
353.736
362.936
371.861
380.443
388.610
396.294
403.429
409.952
415.802
420.926
425.273
428.802
431.476
433.265
434.151
434.119
433.166
431.297
428.522
424.865
420.352
415.020
408.912
402.078
394.572
386.453
377.785
368.635
359.071
349.162
338.979
328.593
318.070
307.477
296.879
286.334
275.899
265.627
255.564
245.753
236.231
227.029
218.175
209.689
201.590
193.888
186.591
179.702
173.220
167.140
161.457
156.159
151.234
146.667
142.443
138.545
134.953
111.566
110.986
110.404
109.820
109.234
108.647
108.058
107.467
106.874
106.279
105.682
105.084
104.484
103.882
103.279
102.673
102.066
101.458
100.847
100.235
99.621
99.006
98.389
97.770
97.149
96.527
95.904
95.278
94.651
94.023
93.393
92.761
92.128
91.493
90.857
90.219
89.580
88.939
88.297
87.653
87.007
86.361
85.712
85.063
84.412
83.759
83.105
82.450
81.793
81.135
80.476
79.815
79.153
78.489
77.825
77.159
76.491
75.823
75.153
74.481
73.809
73.135
72.460
71.784
71.107
70.428
69.748
69.068
68.386
67.702
67.018
66.332
65.646
64.958
64.269
63.580
62.889
62.197
61.504
60.809
60.114
59.418
58.721
58.023
57.324
56.624
55.923
55.221
54.518
53.814
53.110
52.404
51.698
50.990
50.282
49.573
48.863
48.153
47.441
46.729
46.016
45.302
44.587
43.872
43.156
42.439
41.722
41.003
40.284
39.565
38.845
38.124
37.402
36.680
35.957
35.234
34.510
33.785
33.060
32.334
31.608
30.881
30.154
29.426
28.698
27.969
27.240
26.510
25.780
25.050
24.318
23.587
22.855
22.123
21.391
20.658
19.924
19.191
18.457
17.723
16.988
16.253
15.518
14.783
14.047
13.311
12.575
11.839
11.102
10.366
9.629
8.892
8.155
7.418
6.680
5.943
5.205
4.467
3.729
2.992
2.254
1.516
0.778
0.040
-0.698
-1.436
-2.174
-2.912
-3.650
-4.388
-5.125
-5.863
-6.600
-7.338
-8.075
-8.812
-9.549
-10.286
-11.023
-11.759
-12.496
-13.232
-13.968
-14.703
-15.439
-16.174
-16.909
-17.643
-18.377
-19.111
-19.845
-20.578
-21.311
-22.044
-22.776
-23.508
-24.240
-24.971
-25.701
-26.431
-27.161
-27.890
-28.619
-29.348
-30.075
-30.803
-31.530
-32.256
-32.982
-33.707
-34.432
-35.156
-35.879
-36.602
-37.324
-38.046
-38.767
-39.487
-40.207
-40.926
-41.644
-42.362
-43.079
-43.795
-44.510
-45.225
-45.939
-46.652
-47.364
-48.076
-48.787
-49.497
-50.206
-50.914
-51.621
-52.328
-53.034
-53.738
-54.442
-55.145
-55.847
-56.548
-57.248
-57.948
-58.646
-59.343
-60.039
-60.734
-61.429
-62.122
-62.814
-63.505
-64.195
-64.884
-65.572
-66.258
-66.944
-67.628
-68.312
-68.994
-69.675
-70.355
-71.034
-71.711
-72.387
-73.062
-73.736
-74.409
-75.080
-75.750
-76.419
-77.087
-77.753
-78.418
-79.081
-79.744
-80.405
-81.064
-81.722
-82.379
-83.035
-83.689
-84.341
-84.993
-85.642
-86.291
-86.938
-87.583
-88.227
-88.870
-89.511
-90.150
-90.788
-91.425
-92.060
-92.693
-93.325
-93.955
-94.584
-95.211
-95.836
-96.460
-97.082
-97.703
-98.322
-98.939
-99.555
-100.169
-100.781
-101.392
-102.001
-102.608
-103.213
-103.817
-104.419
-105.019
-105.618
-106.215
-106.809
-107.403
-107.994
-108.583
-109.171
-109.757
-110.341
-110.923
-111.503
-112.082
-112.658
-113.233
-113.805
-114.376
-114.945
-115.512
-116.077
-116.640
-117.201
-117.760
-118.317
-118.873
-119.426
-119.977
-120.526
-121.073
-121.618
-122.161
-122.702
-123.241
-123.778
-124.313
-124.845
-125.376
-125.904
-126.431
-126.955
-127.477
-127.997
-128.515
-129.030
-129.544
-130.055
-130.564
-131.071
-131.576
-132.078
-132.579
-133.077
-133.573
-134.066
-134.557
-135.046
-135.533
-136.018
-136.500
-136.980
-137.457
-137.933
-138.406
-138.876
-139.345
-139.811
-140.274
-140.736
-141.194
-141.651
-142.105
-142.557
-143.006
-143.453
-143.898
-144.340
-144.780
-145.217
-145.652
-146.084
-146.514
-146.942
-147.367
-147.789
-148.209
-148.627
-149.042
-149.454
-149.864
-150.272
-150.677
-151.079
-151.479
-151.876
-152.271
-152.664
-153.053
-153.440
-153.825
-154.207
-154.586
-154.963
-155.337
-155.709
-156.078
-156.444
-156.808
-157.169
-157.527
-157.883
-158.236
-158.586
-158.934
-159.279
-159.622
-159.961
-160.298
-160.633
-160.964
-161.293
-161.619
-161.943
-162.264
-162.582
-162.897
-163.210
-163.520
-163.827
-164.131
-164.433
-164.732
-165.028
-165.321
-165.611
-165.899
-166.184
-166.466
-166.746
-167.022
-167.296
-167.567
-167.835
-168.100
-168.363
-168.622
-168.879
-169.133
-169.384
-169.632
-169.878
-170.120
-170.360
-170.597
-170.831
-171.062
-171.290
-171.515
-171.738
-171.958
-172.174
-172.388
-172.599
-172.807
-173.012
